Time[s];COPx[cm];COPy[cm]
0.010;5.149398;-0.585458
0.020;5.148288;-0.587989
0.030;5.147218;-0.591127
0.040;5.146059;-0.595211
0.050;5.144463;-0.600162
0.060;5.141875;-0.605513
0.070;5.137629;-0.610578
0.080;5.131087;-0.614679
0.090;5.121804;-0.617366
0.100;5.109669;-0.618586
0.110;5.094961;-0.618727
0.120;5.078315;-0.618520
0.130;5.060589;-0.618819
0.140;5.042703;-0.620337
0.150;5.025461;-0.623441
0.160;5.009394;-0.628096
0.170;4.994633;-0.633972
0.180;4.980883;-0.640637
0.190;4.967524;-0.647709
0.200;4.953814;-0.654915
0.210;4.939117;-0.662070
0.220;4.923073;-0.669064
0.230;4.905652;-0.675900
0.240;4.887103;-0.682745
0.250;4.867820;-0.689961
0.260;4.848175;-0.698045
0.270;4.828394;-0.707488
0.280;4.808505;-0.718607
0.290;4.788404;-0.731413
0.300;4.767965;-0.745537
0.310;4.747161;-0.760229
0.320;4.726116;-0.774448
0.330;4.705128;-0.787026
0.340;4.684650;-0.796912
0.350;4.665252;-0.803451
0.360;4.647556;-0.806622
0.370;4.632118;-0.807126
0.380;4.619289;-0.806270
0.390;4.609070;-0.805647
0.400;4.601037;-0.806740
0.410;4.594366;-0.810562
0.420;4.587980;-0.817486
0.430;4.580783;-0.827253
0.440;4.571915;-0.839125
0.450;4.560938;-0.852082
0.460;4.547889;-0.865017
0.470;4.533190;-0.876921
0.480;4.517479;-0.887045
0.490;4.501410;-0.895019
0.500;4.485495;-0.900900
0.510;4.469985;-0.905108
0.520;4.454846;-0.908250
0.530;4.439792;-0.910892
0.540;4.424404;-0.913381
0.550;4.408250;-0.915796
0.560;4.391011;-0.918015
0.570;4.372562;-0.919859
0.580;4.353004;-0.921245
0.590;4.332614;-0.922253
0.600;4.311749;-0.923107
0.610;4.290725;-0.924059
0.620;4.269744;-0.925266
0.630;4.248876;-0.926717
0.640;4.228070;-0.928277
0.650;4.207184;-0.929812
0.660;4.186009;-0.931328
0.670;4.164313;-0.933029
0.680;4.141888;-0.935255
0.690;4.118594;-0.938333
0.700;4.094400;-0.942447
0.710;4.069404;-0.947569
0.720;4.043798;-0.953497
0.730;4.017797;-0.959956
0.740;3.991568;-0.966730
0.750;3.965212;-0.973775
0.760;3.938801;-0.981266
0.770;3.912427;-0.989517
0.780;3.886195;-0.998803
0.790;3.860175;-1.009160
0.800;3.834340;-1.020269
0.810;3.808557;-1.031496
0.820;3.782654;-1.042082
0.830;3.756503;-1.051418
0.840;3.730048;-1.059266
0.850;3.703250;-1.065834
0.860;3.676010;-1.071642
0.870;3.648157;-1.077251
0.880;3.619556;-1.082985
0.890;3.590265;-1.088823
0.900;3.560657;-1.094488
0.910;3.531385;-1.099647
0.920;3.503224;-1.104043
0.930;3.476848;-1.107513
0.940;3.452655;-1.109888
0.950;3.430664;-1.110882
0.960;3.410514;-1.110026
0.970;3.391571;-1.106694
0.980;3.373146;-1.100222
0.990;3.354728;-1.090090
1.000;3.336164;-1.076093
1.010;3.317704;-1.058428
1.020;3.299921;-1.037667
1.030;3.283552;-1.014632
1.040;3.269329;-0.990203
1.050;3.257788;-0.965115
1.060;3.249104;-0.939820
1.070;3.243026;-0.914435
1.080;3.238939;-0.888776
1.090;3.236094;-0.862457
1.100;3.233896;-0.835033
1.110;3.232123;-0.806183
1.120;3.230955;-0.775895
1.130;3.230810;-0.744567
1.140;3.232082;-0.712952
1.150;3.234937;-0.681929
1.160;3.239226;-0.652208
1.170;3.244518;-0.624091
1.180;3.250223;-0.597367
1.190;3.255756;-0.571367
1.200;3.260703;-0.545152
1.210;3.264950;-0.517802
1.220;3.268740;-0.488720
1.230;3.272650;-0.457854
1.240;3.277476;-0.425742
1.250;3.284025;-0.393328
1.260;3.292874;-0.361630
1.270;3.304154;-0.331373
1.280;3.317448;-0.302737
1.290;3.331859;-0.275313
1.300;3.346244;-0.248304
1.310;3.359537;-0.220920
1.320;3.371072;-0.192781
1.330;3.380759;-0.164116
1.340;3.389069;-0.135666
1.350;3.396818;-0.108347
1.360;3.404866;-0.082874
1.370;3.413862;-0.059517
1.380;3.424101;-0.038054
1.390;3.435555;-0.017926
1.400;3.447994;0.001525
1.410;3.461135;0.020836
1.420;3.474730;0.040308
1.430;3.488599;0.060018
1.440;3.502604;0.079903
1.450;3.516627;0.099833
1.460;3.530538;0.119635
1.470;3.544163;0.139051
1.480;3.557268;0.157724
1.490;3.569578;0.175234
1.500;3.580831;0.191190
1.510;3.590856;0.205317
1.520;3.599619;0.217456
1.530;3.607222;0.227514
1.540;3.613849;0.235390
1.550;3.619707;0.240972
1.560;3.625021;0.244201
1.570;3.630063;0.245159
1.580;3.635215;0.244090
1.590;3.640963;0.241340
1.600;3.647832;0.237253
1.610;3.656256;0.232102
1.620;3.666476;0.226084
1.630;3.678518;0.219340
1.640;3.692252;0.211940
1.650;3.707484;0.203827
1.660;3.724025;0.194749
1.670;3.741720;0.184248
1.680;3.760441;0.171735
1.690;3.780085;0.156631
1.700;3.800599;0.138556
1.710;3.822042;0.117507
1.720;3.844626;0.093958
1.730;3.868696;0.068815
1.740;3.894602;0.043232
1.750;3.922521;0.018317
1.760;3.952280;-0.005158
1.770;3.983290;-0.026948
1.780;4.014633;-0.047345
1.790;4.045286;-0.067009
1.800;4.074385;-0.086694
1.810;4.101405;-0.106975
1.820;4.126145;-0.128061
1.830;4.148576;-0.149705
1.840;4.168645;-0.171254
1.850;4.186177;-0.191827
1.860;4.200940;-0.210601
1.870;4.212819;-0.227096
1.880;4.221976;-0.241342
1.890;4.228846;-0.253850
1.900;4.233976;-0.265399
1.910;4.237766;-0.276720
1.920;4.240276;-0.288221
1.930;4.241200;-0.299883
1.940;4.240020;-0.311352
1.950;4.236274;-0.322166
1.960;4.229823;-0.331975
1.970;4.220982;-0.340655
1.980;4.210471;-0.348304
1.990;4.199229;-0.355176
2.000;4.188187;-0.361599
2.010;4.178098;-0.367898
2.020;4.169475;-0.374313
2.030;4.162601;-0.380949
2.040;4.157595;-0.387766
2.050;4.154464;-0.394658
2.060;4.153137;-0.401572
2.070;4.153473;-0.408600
2.080;4.155264;-0.416017
2.090;4.158236;-0.424251
2.100;4.162099;-0.433786
2.110;4.166623;-0.445047
2.120;4.171727;-0.458269
2.130;4.177502;-0.473386
2.140;4.184143;-0.489985
2.150;4.191824;-0.507383
2.160;4.200594;-0.524813
2.170;4.210347;-0.541678
2.180;4.220892;-0.557747
2.190;4.232079;-0.573219
2.200;4.243896;-0.588627
2.210;4.256474;-0.604607
2.220;4.269977;-0.621662
2.230;4.284436;-0.640010
2.240;4.299616;-0.659568
2.250;4.314996;-0.680035
2.260;4.329871;-0.701022
2.270;4.343556;-0.722180
2.280;4.355574;-0.743284
2.290;4.365769;-0.764251
2.300;4.374268;-0.785107
2.310;4.381336;-0.805932
2.320;4.387186;-0.826804
2.330;4.391867;-0.847765
2.340;4.395273;-0.868797
2.350;4.397267;-0.889808
2.360;4.397817;-0.910627
2.370;4.397055;-0.931030
2.380;4.395231;-0.950798
2.390;4.392612;-0.969791
2.400;4.389406;-0.988009
2.410;4.385773;-1.005613
2.420;4.381882;-1.022887
2.430;4.377975;-1.040171
2.440;4.374375;-1.057792
2.450;4.371425;-1.076004
2.460;4.369393;-1.094931
2.470;4.368388;-1.114547
2.480;4.368331;-1.134696
2.490;4.369001;-1.155142
2.500;4.370147;-1.175607
2.510;4.371640;-1.195810
2.520;4.373580;-1.215522
2.530;4.376327;-1.234624
2.540;4.380396;-1.253133
2.550;4.386267;-1.271149
2.560;4.394161;-1.288760
2.570;4.403878;-1.305987
2.580;4.414776;-1.322811
2.590;4.425905;-1.339281
2.600;4.436242;-1.355599
2.610;4.444935;-1.372078
2.620;4.451478;-1.388973
2.630;4.455773;-1.406251
2.640;4.458077;-1.423452
2.650;4.458848;-1.439739
2.660;4.458532;-1.454129
2.670;4.457363;-1.465823
2.680;4.455254;-1.474494
2.690;4.451808;-1.480442
2.700;4.446470;-1.484559
2.710;4.438731;-1.488150
2.720;4.428269;-1.492644
2.730;4.414995;-1.499286
2.740;4.399003;-1.508870
2.750;4.380515;-1.521575
2.760;4.359842;-1.536949
2.770;4.337338;-1.554055
2.780;4.313307;-1.571741
2.790;4.287891;-1.588978
2.800;4.261011;-1.605144
2.810;4.232420;-1.620164
2.820;4.201854;-1.634444
2.830;4.169205;-1.648619
2.840;4.134605;-1.663235
2.850;4.098401;-1.678487
2.860;4.061021;-1.694091
2.870;4.022825;-1.709323
2.880;3.983992;-1.723150
2.890;3.944489;-1.734420
2.900;3.904114;-1.742039
2.910;3.862601;-1.745156
2.920;3.819778;-1.743333
2.930;3.775709;-1.736671
2.940;3.730768;-1.725826
2.950;3.685578;-1.711895
2.960;3.640853;-1.696165
2.970;3.597206;-1.679824
2.980;3.555001;-1.663719
2.990;3.514277;-1.648238
3.000;3.474758;-1.633338
3.010;3.435948;-1.618676
3.020;3.397313;-1.603806
3.030;3.358498;-1.588370
3.040;3.319495;-1.572226
3.050;3.280682;-1.555474
3.060;3.242704;-1.538361
3.070;3.206240;-1.521128
3.080;3.171731;-1.503877
3.090;3.139184;-1.486514
3.100;3.108129;-1.468783
3.110;3.077782;-1.450331
3.120;3.047360;-1.430760
3.130;3.016453;-1.409678
3.140;2.985310;-1.386768
3.150;2.954924;-1.361875
3.160;2.926869;-1.335052
3.170;2.902907;-1.306549
3.180;2.884474;-1.276727
3.190;2.872206;-1.245948
3.200;2.865718;-1.214476
3.210;2.863720;-1.182417
3.220;2.864433;-1.149736
3.230;2.866125;-1.116328
3.240;2.867575;-1.082140
3.250;2.868293;-1.047252
3.260;2.868504;-1.011868
3.270;2.868930;-0.976217
3.280;2.870500;-0.940423
3.290;2.874088;-0.904437
3.300;2.880307;-0.868071
3.310;2.889393;-0.831136
3.320;2.901163;-0.793602
3.330;2.915066;-0.755712
3.340;2.930327;-0.717959
3.350;2.946159;-0.680915
3.360;2.961970;-0.645002
3.370;2.977516;-0.610345
3.380;2.992917;-0.576790
3.390;3.008564;-0.544068
3.400;3.024946;-0.511964
3.410;3.042490;-0.480417
3.420;3.061463;-0.449515
3.430;3.081941;-0.419426
3.440;3.103814;-0.390327
3.450;3.126791;-0.362349
3.460;3.150391;-0.335577
3.470;3.173951;-0.310090
3.480;3.196681;-0.286015
3.490;3.217795;-0.263582
3.500;3.236697;-0.243157
3.510;3.253136;-0.225239
3.520;3.267253;-0.210386
3.530;3.279504;-0.199067
3.540;3.290476;-0.191488
3.550;3.300673;-0.187489
3.560;3.310325;-0.186579
3.570;3.319291;-0.188112
3.580;3.327119;-0.191486
3.590;3.333229;-0.196262
3.600;3.337194;-0.202126
3.610;3.338978;-0.208745
3.620;3.339034;-0.215637
3.630;3.338203;-0.222173
3.640;3.337443;-0.227739
3.650;3.337527;-0.231989
3.660;3.338829;-0.235055
3.670;3.341298;-0.237608
3.680;3.344597;-0.240710
3.690;3.348354;-0.245540
3.700;3.352381;-0.253069
3.710;3.356786;-0.263803
3.720;3.361921;-0.277646
3.730;3.368231;-0.293932
3.740;3.376066;-0.311627
3.750;3.385569;-0.329655
3.760;3.396664;-0.347225
3.770;3.409149;-0.364051
3.780;3.422815;-0.380409
3.790;3.437492;-0.397005
3.800;3.453015;-0.414693
3.810;3.469126;-0.434119
3.820;3.485399;-0.455428
3.830;3.501219;-0.478158
3.840;3.515836;-0.501340
3.850;3.528462;-0.523735
3.860;3.538408;-0.544119
3.870;3.545230;-0.561521
3.880;3.548811;-0.575430
3.890;3.549333;-0.585920
3.900;3.547136;-0.593696
3.910;3.542528;-0.599993
3.920;3.535675;-0.606309
3.930;3.526606;-0.614039
3.940;3.515312;-0.624112
3.950;3.501867;-0.636768
3.960;3.486498;-0.651527
3.970;3.469579;-0.667358
3.980;3.451579;-0.682948
3.990;3.433014;-0.697000
4.000;3.414434;-0.708484
4.010;3.396456;-0.716779
4.020;3.379804;-0.721720
4.030;3.365274;-0.723573
4.040;3.353586;-0.722940
4.050;3.345140;-0.720633
4.060;3.339802;-0.717505
4.070;3.336844;-0.714278
4.080;3.335097;-0.711428
4.090;3.333298;-0.709121
4.100;3.330481;-0.707235
4.110;3.326256;-0.705444
4.120;3.320880;-0.703354
4.130;3.315126;-0.700646
4.140;3.310027;-0.697182
4.150;3.306632;-0.693002
4.160;3.305817;-0.688262
4.170;3.308211;-0.683161
4.180;3.314189;-0.677905
4.190;3.323908;-0.672694
4.200;3.337330;-0.667706
4.210;3.354223;-0.663059
4.220;3.374181;-0.658782
4.230;3.396688;-0.654835
4.240;3.421238;-0.651181
4.250;3.447450;-0.647871
4.260;3.475092;-0.645089
4.270;3.503982;-0.643148
4.280;3.533825;-0.642468
4.290;3.564080;-0.643546
4.300;3.593939;-0.646885
4.310;3.622420;-0.652872
4.320;3.648511;-0.661613
4.330;3.671325;-0.672798
4.340;3.690234;-0.685661
4.350;3.704967;-0.699093
4.360;3.715665;-0.711902
4.370;3.722842;-0.723138
4.380;3.727251;-0.732365
4.390;3.729675;-0.739752
4.400;3.730740;-0.745925
4.410;3.730812;-0.751653
4.420;3.730004;-0.757497
4.430;3.728238;-0.763606
4.440;3.725333;-0.769696
4.450;3.721071;-0.775241
4.460;3.715253;-0.779763
4.470;3.707735;-0.783133
4.480;3.698461;-0.785772
4.490;3.687495;-0.788696
4.500;3.675045;-0.793348
4.510;3.661443;-0.801240
4.520;3.647082;-0.813524
4.530;3.632300;-0.830635
4.540;3.617267;-0.852148
4.550;3.601905;-0.876875
4.560;3.585929;-0.903153
4.570;3.568979;-0.929246
4.580;3.550812;-0.953730
4.590;3.531460;-0.975763
4.600;3.511277;-0.995152
4.610;3.490877;-1.012190
4.620;3.471018;-1.027366
4.630;3.452494;-1.041084
4.640;3.436053;-1.053510
4.650;3.422314;-1.064604
4.660;3.411656;-1.074299
4.670;3.404109;-1.082709
4.680;3.399313;-1.090247
4.690;3.396580;-1.097558
4.700;3.395064;-1.105314
4.710;3.393967;-1.113981
4.720;3.392719;-1.123673
4.730;3.391097;-1.134133
4.740;3.389244;-1.144838
4.750;3.387545;-1.155166
4.760;3.386403;-1.164583
4.770;3.385992;-1.172778
4.780;3.386150;-1.179724
4.790;3.386473;-1.185659
4.800;3.386567;-1.190979
4.810;3.386319;-1.196074
4.820;3.386005;-1.201157
4.830;3.386191;-1.206191
4.840;3.387470;-1.210950
4.850;3.390170;-1.215174
4.860;3.394198;-1.218691
4.870;3.399070;-1.221422
4.880;3.404132;-1.223278
4.890;3.408827;-1.224075
4.900;3.412885;-1.223519
4.910;3.416374;-1.221292
4.920;3.419601;-1.217193
4.930;3.422942;-1.211286
4.940;3.426670;-1.203985
4.950;3.430852;-1.196019
4.960;3.435346;-1.188258
4.970;3.439839;-1.181460
4.980;3.443926;-1.176076
4.990;3.447203;-1.172185
5.000;3.449394;-1.169575
5.010;3.450466;-1.167888
5.020;3.450684;-1.166740
5.030;3.450574;-1.165772
5.040;3.450835;-1.164636
5.050;3.452220;-1.162994
5.060;3.455393;-1.160577
5.070;3.460783;-1.157271
5.080;3.468465;-1.153126
5.090;3.478139;-1.148285
5.100;3.489223;-1.142867
5.110;3.501041;-1.136909
5.120;3.513041;-1.130402
5.130;3.524927;-1.123358
5.140;3.536642;-1.115865
5.150;3.548215;-1.108081
5.160;3.559587;-1.100179
5.170;3.570495;-1.092297
5.180;3.580481;-1.084503
5.190;3.589010;-1.076803
5.200;3.595634;-1.069182
5.210;3.600153;-1.061622
5.220;3.602669;-1.054101
5.230;3.603537;-1.046562
5.240;3.603208;-1.038916
5.250;3.602034;-1.031114
5.260;3.600131;-1.023250
5.270;3.597367;-1.015632
5.280;3.593513;-1.008746
5.290;3.588481;-1.003106
5.300;3.582479;-0.999039
5.310;3.575988;-0.996520
5.320;3.569534;-0.995135
5.330;3.563387;-0.994231
5.340;3.557367;-0.993168
5.350;3.550864;-0.991561
5.360;3.543058;-0.989384
5.370;3.533212;-0.986906
5.380;3.520897;-0.984515
5.390;3.506093;-0.982532
5.400;3.489154;-0.981113
5.410;3.470667;-0.980242
5.420;3.451220;-0.979759
5.430;3.431187;-0.979372
5.440;3.410606;-0.978630
5.450;3.389240;-0.976939
5.460;3.366785;-0.973665
5.470;3.343078;-0.968351
5.480;3.318219;-0.960952
5.490;3.292515;-0.951959
5.500;3.266316;-0.942337
5.510;3.239848;-0.933257
5.520;3.213130;-0.925728
5.530;3.186026;-0.920268
5.540;3.158389;-0.916775
5.550;3.130171;-0.914646
5.560;3.101469;-0.913061
5.570;3.072472;-0.911312
5.580;3.043385;-0.908998
5.590;3.014353;-0.906052
5.600;2.985428;-0.902645
5.610;2.956562;-0.899064
5.620;2.927640;-0.895607
5.630;2.898522;-0.892518
5.640;2.869089;-0.889918
5.650;2.839283;-0.887758
5.660;2.809125;-0.885790
5.670;2.778711;-0.883621
5.680;2.748189;-0.880824
5.690;2.717742;-0.877076
5.700;2.687603;-0.872262
5.710;2.658099;-0.866495
5.720;2.629664;-0.860070
5.730;2.602807;-0.853360
5.740;2.578032;-0.846712
5.750;2.555744;-0.840360
5.760;2.536157;-0.834378
5.770;2.519240;-0.828653
5.780;2.504688;-0.822889
5.790;2.491946;-0.816642
5.800;2.480289;-0.809436
5.810;2.468955;-0.800946
5.820;2.457299;-0.791178
5.830;2.444959;-0.780559
5.840;2.431968;-0.769853
5.850;2.418771;-0.759917
5.860;2.406092;-0.751368
5.870;2.394680;-0.744299
5.880;2.385030;-0.738154
5.890;2.377191;-0.731840
5.900;2.370772;-0.724065
5.910;2.365146;-0.713809
5.920;2.359761;-0.700715
5.930;2.354428;-0.685259
5.940;2.349435;-0.668600
5.950;2.345448;-0.652226
5.960;2.343252;-0.637528
5.970;2.343469;-0.625466
5.980;2.346376;-0.616398
5.990;2.351881;-0.610101
6.000;2.359630;-0.605964
6.010;2.369175;-0.603262
6.020;2.380131;-0.601429
6.030;2.392259;-0.600199
6.040;2.405471;-0.599570
6.050;2.419762;-0.599631
6.060;2.435142;-0.600373
6.070;2.451624;-0.601583
6.080;2.469257;-0.602896
6.090;2.488159;-0.603938
6.100;2.508488;-0.604482
6.110;2.530373;-0.604523
6.120;2.553804;-0.604261
6.130;2.578588;-0.604002
6.140;2.604361;-0.604038
6.150;2.630675;-0.604529
6.160;2.657101;-0.605433
6.170;2.683317;-0.606506
6.180;2.709159;-0.607373
6.190;2.734646;-0.607646
6.200;2.759968;-0.607071
6.210;2.785437;-0.605623
6.220;2.811407;-0.603547
6.230;2.838174;-0.601310
6.240;2.865895;-0.599510
6.250;2.894515;-0.598755
6.260;2.923710;-0.599564
6.270;2.952894;-0.602275
6.280;2.981327;-0.606989
6.290;3.008301;-0.613544
6.300;3.033342;-0.621539
6.310;3.056307;-0.630405
6.320;3.077337;-0.639515
6.330;3.096715;-0.648303
6.340;3.114707;-0.656373
6.350;3.131469;-0.663569
6.360;3.147045;-0.670012
6.370;3.161427;-0.676085
6.380;3.174617;-0.682349
6.390;3.186636;-0.689350
6.400;3.197519;-0.697396
6.410;3.207312;-0.706387
6.420;3.216114;-0.715800
6.430;3.224128;-0.724836
6.440;3.231678;-0.732683
6.450;3.239157;-0.738793
6.460;3.246925;-0.743087
6.470;3.255168;-0.746014
6.480;3.263784;-0.748460
6.490;3.272367;-0.751533
6.500;3.280304;-0.756272
6.510;3.286979;-0.763386
6.520;3.291990;-0.773084
6.530;3.295292;-0.785069
6.540;3.297194;-0.798653
6.550;3.298224;-0.812953
6.560;3.298944;-0.827130
6.570;3.299818;-0.840617
6.580;3.301166;-0.853302
6.590;3.303178;-0.865556
6.600;3.305942;-0.878072
6.610;3.309465;-0.891566
6.620;3.313689;-0.906458
6.630;3.318510;-0.922707
6.640;3.323830;-0.939845
6.650;3.329607;-0.957166
6.660;3.335934;-0.973950
6.670;3.343093;-0.989662
6.680;3.351590;-1.004087
6.690;3.362104;-1.017417
6.700;3.375360;-1.030237
6.710;3.391951;-1.043384
6.720;3.412180;-1.057728
6.730;3.435955;-1.073944
6.740;3.462800;-1.092361
6.750;3.491989;-1.112935
6.760;3.522780;-1.135331
6.770;3.554662;-1.159094
6.780;3.587488;-1.183811
6.790;3.621424;-1.209182
6.800;3.656711;-1.234979
6.810;3.693354;-1.260951
6.820;3.730904;-1.286754
6.830;3.768471;-1.311950
6.840;3.804956;-1.336065
6.850;3.839388;-1.358686
6.860;3.871187;-1.379549
6.870;3.900256;-1.398605
6.880;3.926902;-1.416037
6.890;3.951661;-1.432202
6.900;3.975094;-1.447544
6.910;3.997614;-1.462480
6.920;4.019373;-1.477322
6.930;4.040261;-1.492243
6.940;4.060019;-1.507294
6.950;4.078413;-1.522484
6.960;4.095356;-1.537871
6.970;4.110943;-1.553594
6.980;4.125388;-1.569818
6.990;4.138936;-1.586593
7.000;4.151809;-1.603750
7.010;4.164193;-1.620893
7.020;4.176264;-1.637545
7.030;4.188246;-1.653373
7.040;4.200469;-1.668381
7.050;4.213358;-1.682961
7.060;4.227357;-1.697764
7.070;4.242783;-1.713457
7.080;4.259705;-1.730492
7.090;4.277905;-1.749002
7.100;4.296936;-1.768840
7.110;4.316266;-1.789708
7.120;4.335454;-1.811274
7.130;4.354318;-1.833231
7.140;4.373011;-1.855341
7.150;4.391973;-1.877469
7.160;4.411748;-1.899624
7.170;4.432734;-1.921919
7.180;4.454983;-1.944438
7.190;4.478114;-1.967051
7.200;4.501399;-1.989295
7.210;4.523941;-2.010400
7.220;4.544901;-2.029489
7.230;4.563667;-2.045841
7.240;4.579955;-2.059089
7.250;4.593843;-2.069237
7.260;4.605735;-2.076524
7.270;4.616270;-2.081264
7.280;4.626176;-2.083765
7.290;4.636109;-2.084330
7.300;4.646550;-2.083266
7.310;4.657796;-2.080847
7.320;4.670037;-2.077240
7.330;4.683440;-2.072468
7.340;4.698174;-2.066414
7.350;4.714365;-2.058890
7.360;4.732029;-2.049708
7.370;4.751038;-2.038750
7.380;4.771103;-2.025982
7.390;4.791818;-2.011467
7.400;4.812743;-1.995380
7.410;4.833553;-1.978038
7.420;4.854141;-1.959891
7.430;4.874607;-1.941444
7.440;4.895081;-1.923128
7.450;4.915492;-1.905194
7.460;4.935400;-1.887710
7.470;4.954001;-1.870626
7.480;4.970308;-1.853855
7.490;4.983412;-1.837300
7.500;4.992726;-1.820800
7.510;4.998096;-1.804049
7.520;4.999750;-1.786569
7.530;4.998158;-1.767795
7.540;4.993898;-1.747266
7.550;4.987572;-1.724837
7.560;4.979736;-1.700800
7.570;4.970828;-1.675849
7.580;4.961114;-1.650892
7.590;4.950705;-1.626788
7.600;4.939627;-1.604136
7.610;4.927894;-1.583185
7.620;4.915577;-1.563877
7.630;4.902844;-1.545958
7.640;4.889978;-1.529057
7.650;4.877375;-1.512709
7.660;4.865493;-1.496362
7.670;4.854769;-1.479429
7.680;4.845494;-1.461400
7.690;4.837686;-1.441996
7.700;4.831039;-1.421256
7.710;4.825014;-1.399534
7.720;4.819033;-1.377372
7.730;4.812693;-1.355326
7.740;4.805890;-1.333816
7.750;4.798806;-1.313056
7.760;4.791803;-1.293091
7.770;4.785296;-1.273882
7.780;4.779652;-1.255396
7.790;4.775099;-1.237651
7.800;4.771647;-1.220714
7.810;4.769017;-1.204664
7.820;4.766609;-1.189531
7.830;4.763559;-1.175211
7.840;4.758885;-1.161426
7.850;4.751717;-1.147784
7.860;4.741544;-1.133925
7.870;4.728372;-1.119742
7.880;4.712740;-1.105543
7.890;4.695575;-1.092084
7.900;4.677942;-1.080368
7.910;4.660789;-1.071281
7.920;4.644765;-1.065214
7.930;4.630132;-1.061870
7.940;4.616771;-1.060364
7.950;4.604240;-1.059583
7.960;4.591893;-1.058633
7.970;4.579020;-1.057194
7.980;4.565005;-1.055628
7.990;4.549436;-1.054804
8.000;4.532141;-1.055689
