Time[s];COPx[cm];COPy[cm]
0.010;-0.045819;1.853634
0.020;-0.036075;1.860069
0.030;-0.025881;1.866011
0.040;-0.015029;1.871015
0.050;-0.003567;1.874720
0.060;0.008281;1.876884
0.070;0.020300;1.877468
0.080;0.032441;1.876736
0.090;0.044869;1.875279
0.100;0.057870;1.873840
0.110;0.071678;1.872998
0.120;0.086291;1.872851
0.130;0.101361;1.872865
0.140;0.116159;1.871986
0.150;0.129647;1.868958
0.160;0.140627;1.862727
0.170;0.147985;1.852783
0.180;0.150935;1.839343
0.190;0.149206;1.823283
0.200;0.143098;1.805853
0.210;0.133372;1.788253
0.220;0.121033;1.771225
0.230;0.107076;1.754837
0.240;0.092271;1.738508
0.250;0.077080;1.721246
0.260;0.061691;1.701995
0.270;0.046151;1.680008
0.280;0.030530;1.655156
0.290;0.015080;1.628116
0.300;0.000338;1.600404
0.310;-0.012886;1.574194
0.320;-0.023646;1.551929
0.330;-0.031126;1.535766
0.340;-0.034920;1.527028
0.350;-0.035211;1.525866
0.360;-0.032777;1.531277
0.370;-0.028779;1.541485
0.380;-0.024396;1.554489
0.390;-0.020455;1.568583
0.400;-0.017213;1.582675
0.410;-0.014390;1.596366
0.420;-0.011408;1.609841
0.430;-0.007702;1.623627
0.440;-0.002963;1.638304
0.450;0.002769;1.654254
0.460;0.009168;1.671524
0.470;0.015804;1.689859
0.480;0.022312;1.708858
0.490;0.028497;1.728164
0.500;0.034331;1.747560
0.510;0.039877;1.766902
0.520;0.045181;1.785943
0.530;0.050191;1.804162
0.540;0.054732;1.820749
0.550;0.058551;1.834753
0.560;0.061419;1.845332
0.570;0.063230;1.851978
0.580;0.064070;1.854644
0.590;0.064192;1.853722
0.600;0.063927;1.849896
0.610;0.063554;1.843917
0.620;0.063210;1.836413
0.630;0.062881;1.827810
0.640;0.062506;1.818387
0.650;0.062115;1.808392
0.660;0.061938;1.798112
0.670;0.062432;1.787854
0.680;0.064196;1.777878
0.690;0.067804;1.768369
0.700;0.073618;1.759478
0.710;0.081657;1.751392
0.720;0.091580;1.744388
0.730;0.102797;1.738812
0.740;0.114656;1.734998
0.750;0.126637;1.733130
0.760;0.138471;1.733129
0.770;0.150140;1.734623
0.780;0.161788;1.737043
0.790;0.173613;1.739820
0.800;0.185817;1.742609
0.810;0.198646;1.745433
0.820;0.212475;1.748690
0.830;0.227829;1.753017
0.840;0.245281;1.759100
0.850;0.265243;1.767495
0.860;0.287751;1.778543
0.870;0.312365;1.792365
0.880;0.338253;1.808937
0.890;0.364435;1.828158
0.900;0.390072;1.849892
0.910;0.414670;1.873959
0.920;0.438130;1.900127
0.930;0.460649;1.928132
0.940;0.482540;1.957704
0.950;0.504043;1.988580
0.960;0.525201;2.020451
0.970;0.545809;2.052891
0.980;0.565433;2.085293
0.990;0.583498;2.116894
1.000;0.599405;2.146860
1.010;0.612682;2.174397
1.020;0.623087;2.198825
1.030;0.630659;2.219621
1.040;0.635669;2.236464
1.050;0.638535;2.249295
1.060;0.639723;2.258371
1.070;0.639679;2.264216
1.080;0.638799;2.267479
1.090;0.637399;2.268742
1.100;0.635660;2.268383
1.110;0.633588;2.266550
1.120;0.631022;2.263234
1.130;0.627742;2.258382
1.140;0.623617;2.251980
1.150;0.618724;2.244095
1.160;0.613345;2.234843
1.170;0.607862;2.224345
1.180;0.602605;2.212679
1.190;0.597730;2.199871
1.200;0.593179;2.185910
1.210;0.588723;2.170776
1.220;0.584060;2.154471
1.230;0.578905;2.137075
1.240;0.573076;2.118792
1.250;0.566553;2.099974
1.260;0.559509;2.081078
1.270;0.552272;2.062589
1.280;0.545206;2.044922
1.290;0.538538;2.028376
1.300;0.532244;2.013113
1.310;0.526048;1.999143
1.320;0.519546;1.986295
1.330;0.512350;1.974212
1.340;0.504180;1.962429
1.350;0.494896;1.950544
1.360;0.484483;1.938429
1.370;0.473039;1.926372
1.380;0.460796;1.915038
1.390;0.448140;1.905236
1.400;0.435587;1.897582
1.410;0.423704;1.892233
1.420;0.412998;1.888829
1.430;0.403849;1.886664
1.440;0.396524;1.884988
1.450;0.391253;1.883349
1.460;0.388292;1.881816
1.470;0.387911;1.881042
1.480;0.390308;1.882090
1.490;0.395491;1.886085
1.500;0.403200;1.893817
1.510;0.412898;1.905432
1.520;0.423850;1.920341
1.530;0.435264;1.937355
1.540;0.446467;1.954960
1.550;0.457031;1.971622
1.560;0.466830;1.986049
1.570;0.475983;1.997369
1.580;0.484741;2.005242
1.590;0.493358;2.009872
1.600;0.501987;2.011921
1.610;0.510642;2.012300
1.620;0.519220;2.011876
1.630;0.527552;2.011195
1.640;0.535493;2.010330
1.650;0.543006;2.008920
1.660;0.550236;2.006355
1.670;0.557533;2.002001
1.680;0.565392;1.995394
1.690;0.574297;1.986351
1.700;0.584514;1.975022
1.710;0.595912;1.961903
1.720;0.607887;1.947781
1.730;0.619446;1.933617
1.740;0.629452;1.920344
1.750;0.636959;1.908645
1.760;0.641503;1.898773
1.770;0.643264;1.890510
1.780;0.643051;1.883290
1.790;0.642124;1.876480
1.800;0.641903;1.869685
1.810;0.643635;1.862947
1.820;0.648111;1.856727
1.830;0.655502;1.851687
1.840;0.665359;1.848384
1.850;0.676752;1.847008
1.860;0.688495;1.847289
1.870;0.699405;1.848568
1.880;0.708524;1.850020
1.890;0.715238;1.850926
1.900;0.719279;1.850918
1.910;0.720619;1.850104
1.920;0.719345;1.849025
1.930;0.715582;1.848470
1.940;0.709468;1.849231
1.950;0.701156;1.851900
1.960;0.690849;1.856784
1.970;0.678842;1.863922
1.980;0.665588;1.873172
1.990;0.651737;1.884268
2.000;0.638101;1.896859
2.010;0.625563;1.910539
2.020;0.614933;1.924899
2.030;0.606782;1.939610
2.040;0.601298;1.954497
2.050;0.598245;1.969589
2.060;0.597088;1.985086
2.070;0.597264;2.001250
2.080;0.598487;2.018227
2.090;0.600876;2.035881
2.100;0.604856;2.053729
2.110;0.610843;2.071004
2.120;0.618916;2.086831
2.130;0.628657;2.100431
2.140;0.639237;2.111300
2.150;0.649712;2.119275
2.160;0.659350;2.124489
2.170;0.667828;2.127237
2.180;0.675202;2.127848
2.190;0.681689;2.126619
2.200;0.687413;2.123824
2.210;0.692269;2.119779
2.220;0.695978;2.114915
2.230;0.698277;2.109818
2.240;0.699118;2.105178
2.250;0.698760;2.101670
2.260;0.697723;2.099807
2.270;0.696612;2.099809
2.280;0.695913;2.101535
2.290;0.695841;2.104466
2.300;0.696297;2.107777
2.310;0.696934;2.110517
2.320;0.697301;2.111872
2.330;0.696996;2.111430
2.340;0.695776;2.109314
2.350;0.693607;2.106124
2.360;0.690667;2.102751
2.370;0.687313;2.100143
2.380;0.683998;2.099100
2.390;0.681136;2.100126
2.400;0.678946;2.103344
2.410;0.677348;2.108487
2.420;0.675967;2.114962
2.430;0.674236;2.121961
2.440;0.671565;2.128618
2.450;0.667491;2.134196
2.460;0.661760;2.138275
2.470;0.654322;2.140898
2.480;0.645288;2.142579
2.490;0.634890;2.144158
2.500;0.623462;2.146547
2.510;0.611408;2.150477
2.520;0.599133;2.156372
2.530;0.586913;2.164357
2.540;0.574738;2.174341
2.550;0.562187;2.186079
2.560;0.548395;2.199196
2.570;0.532159;2.213216
2.580;0.512218;2.227634
2.590;0.487657;2.242007
2.600;0.458330;2.256027
2.610;0.425171;2.269508
2.620;0.390231;2.282285
2.630;0.356387;2.294077
2.640;0.326752;2.304417
2.650;0.303943;2.312737
2.660;0.289455;2.318594
2.670;0.283330;2.321915
2.680;0.284247;2.323138
2.690;0.289964;2.323129
2.700;0.297972;2.322942
2.710;0.306135;2.323491
2.720;0.313108;2.325267
2.730;0.318480;2.328189
2.740;0.322657;2.331635
2.750;0.326583;2.334627
2.760;0.331423;2.336114
2.770;0.338254;2.335260
2.780;0.347841;2.331667
2.790;0.360503;2.325493
2.800;0.376075;2.317427
2.810;0.393971;2.308552
2.820;0.413339;2.300095
2.830;0.433259;2.293128
2.840;0.452949;2.288263
2.850;0.471920;2.285476
2.860;0.490043;2.284146
2.870;0.507484;2.283299
2.880;0.524552;2.281991
2.890;0.541499;2.279639
2.900;0.558410;2.276186
2.910;0.575214;2.272018
2.920;0.591835;2.267689
2.930;0.608361;2.263636
2.940;0.625149;2.260036
2.950;0.642793;2.256885
2.960;0.661997;2.254218
2.970;0.683362;2.252311
2.980;0.707180;2.251728
2.990;0.733278;2.253152
3.000;0.761000;2.257102
3.010;0.789332;2.263676
3.020;0.817163;2.272475
3.030;0.843584;2.282723
3.040;0.868094;2.293511
3.050;0.890637;2.304043
3.060;0.911437;2.313770
3.070;0.930739;2.322408
3.080;0.948562;2.329857
3.090;0.964574;2.336105
3.100;0.978136;2.341184
3.110;0.988476;2.345174
3.120;0.994938;2.348249
3.130;0.997210;2.350681
3.140;0.995454;2.352768
3.150;0.990296;2.354673
3.160;0.982669;2.356272
3.170;0.973604;2.357102
3.180;0.964017;2.356499
3.190;0.954568;2.353846
3.200;0.945593;2.348825
3.210;0.937126;2.341573
3.220;0.928978;2.332692
3.230;0.920853;2.323162
3.240;0.912450;2.314187
3.250;0.903540;2.306992
3.260;0.894023;2.302603
3.270;0.883976;2.301634
3.280;0.873684;2.304137
3.290;0.863620;2.309587
3.300;0.854370;2.317009
3.310;0.846515;2.325216
3.320;0.840490;2.333093
3.330;0.836465;2.339856
3.340;0.834291;2.345225
3.350;0.833519;2.349459
3.360;0.833492;2.353222
3.370;0.833484;2.357324
3.380;0.832894;2.362426
3.390;0.831454;2.368806
3.400;0.829375;2.376300
3.410;0.827372;2.384400
3.420;0.826473;2.392468
3.430;0.827674;2.399951
3.440;0.831568;2.406518
3.450;0.838131;2.412090
3.460;0.846765;2.416760
3.470;0.856573;2.420670
3.480;0.866709;2.423893
3.490;0.876660;2.426388
3.500;0.886323;2.428015
3.510;0.895902;2.428615
3.520;0.905698;2.428094
3.530;0.915898;2.426485
3.540;0.926446;2.423939
3.550;0.937014;2.420615
3.560;0.947038;2.416507
3.570;0.955795;2.411289
3.580;0.962519;2.404255
3.590;0.966547;2.394419
3.600;0.967462;2.380776
3.610;0.965178;2.362640
3.620;0.959919;2.339960
3.630;0.952087;2.313468
3.640;0.942097;2.284591
3.650;0.930242;2.255127
3.660;0.916677;2.226813
3.670;0.901512;2.200927
3.680;0.884962;2.178049
3.690;0.867454;2.158059
3.700;0.849646;2.140356
3.710;0.832327;2.124233
3.720;0.816253;2.109262
3.730;0.801979;2.095538
3.740;0.789738;2.083703
3.750;0.779399;2.074755
3.760;0.770515;2.069731
3.770;0.762428;2.069381
3.780;0.754394;2.073904
3.790;0.745707;2.082848
3.800;0.735805;2.095143
3.810;0.724366;2.109294
3.820;0.711393;2.123677
3.830;0.697255;2.136901
3.840;0.682641;2.148131
3.850;0.668375;2.157233
3.860;0.655145;2.164688
3.870;0.643248;2.171285
3.880;0.632473;2.177739
3.890;0.622165;2.184417
3.900;0.611429;2.191294
3.910;0.599381;2.198131
3.920;0.585381;2.204755
3.930;0.569196;2.211282
3.940;0.551079;2.218194
3.950;0.531748;2.226273
3.960;0.512234;2.236395
3.970;0.493631;2.249263
3.980;0.476803;2.265143
3.990;0.462160;2.283714
4.000;0.449587;2.304107
4.010;0.438555;2.325121
4.020;0.428374;2.345563
4.030;0.418465;2.364578
4.040;0.408544;2.381876
4.050;0.398635;2.397726
4.060;0.388932;2.412740
4.070;0.379619;2.427541
4.080;0.370725;2.442511
4.090;0.362095;2.457715
4.100;0.353437;2.472998
4.110;0.344408;2.488136
4.120;0.334720;2.502961
4.130;0.324236;2.517402
4.140;0.313077;2.531462
4.150;0.301668;2.545155
4.160;0.290682;2.558433
4.170;0.280835;2.571130
4.180;0.272616;2.582998
4.190;0.266067;2.593796
4.200;0.260739;2.603397
4.210;0.255873;2.611814
4.220;0.250734;2.619132
4.230;0.244950;2.625361
4.240;0.238713;2.630303
4.250;0.232757;2.633508
4.260;0.228118;2.634336
4.270;0.225789;2.632125
4.280;0.226392;2.626403
4.290;0.229985;2.617082
4.300;0.236060;2.604556
4.310;0.243692;2.589649
4.320;0.251822;2.573422
4.330;0.259569;2.556891
4.340;0.266469;2.540787
4.350;0.272517;2.525415
4.360;0.277989;2.510661
4.370;0.283156;2.496098
4.380;0.288024;2.481133
4.390;0.292237;2.465181
4.400;0.295172;2.447829
4.410;0.296171;2.428999
4.420;0.294817;2.409073
4.430;0.291144;2.388902
4.440;0.285715;2.369630
4.450;0.279512;2.352361
4.460;0.273705;2.337791
4.470;0.269356;2.325960
4.480;0.267192;2.316231
4.490;0.267496;2.307516
4.500;0.270143;2.298682
4.510;0.274720;2.288958
4.520;0.280657;2.278216
4.530;0.287317;2.267010
4.540;0.294058;2.256396
4.550;0.300324;2.247619
4.560;0.305747;2.241782
4.570;0.310272;2.239607
4.580;0.314213;2.241331
4.590;0.318233;2.246748
4.600;0.323213;2.255331
4.610;0.330079;2.266390
4.620;0.339613;2.279200
4.630;0.352304;2.293074
4.640;0.368255;2.307391
4.650;0.387191;2.321626
4.660;0.408560;2.335406
4.670;0.431688;2.348578
4.680;0.455935;2.361227
4.690;0.480810;2.373609
4.700;0.506030;2.385989
4.710;0.531510;2.398442
4.720;0.557315;2.410729
4.730;0.583568;2.422333
4.740;0.610371;2.432633
4.750;0.637743;2.441136
4.760;0.665595;2.447643
4.770;0.693744;2.452277
4.780;0.721951;2.455380
4.790;0.749952;2.457341
4.800;0.777488;2.458454
4.810;0.804300;2.458875
4.820;0.830110;2.458702
4.830;0.854609;2.458071
4.840;0.877460;2.457192
4.850;0.898336;2.456264
4.860;0.916987;2.455282
4.870;0.933313;2.453872
4.880;0.947405;2.451240
4.890;0.959542;2.446354
4.900;0.970162;2.438305
4.910;0.979795;2.426729
4.920;0.988975;2.412077
4.930;0.998120;2.395594
4.940;1.007401;2.378990
4.950;1.016659;2.363933
4.960;1.025447;2.351568
4.970;1.033213;2.342276
4.980;1.039571;2.335724
4.990;1.044515;2.331153
5.000;1.048493;2.327741
5.010;1.052296;2.324885
5.020;1.056804;2.322278
5.030;1.062686;2.319828
5.040;1.070151;2.317492
5.050;1.078842;2.315133
5.060;1.087894;2.312509
5.070;1.096158;2.309385
5.080;1.102502;2.305679
5.090;1.106106;2.301543
5.100;1.106633;2.297319
5.110;1.104249;2.293391
5.120;1.099497;2.290026
5.130;1.093112;2.287250
5.140;1.085820;2.284834
5.150;1.078170;2.282385
5.160;1.070435;2.279506
5.170;1.062588;2.275949
5.180;1.054389;2.271711
5.190;1.045527;2.267044
5.200;1.035806;2.262404
5.210;1.025286;2.258330
5.220;1.014314;2.255307
5.230;1.003427;2.253634
5.240;0.993149;2.253374
5.250;0.983785;2.254396
5.260;0.975301;2.256457
5.270;0.967349;2.259279
5.280;0.959400;2.262606
5.290;0.950911;2.266231
5.300;0.941458;2.270022
5.310;0.930844;2.273932
5.320;0.919195;2.277981
5.330;0.907002;2.282196
5.340;0.895066;2.286523
5.350;0.884297;2.290754
5.360;0.875437;2.294534
5.370;0.868829;2.297455
5.380;0.864324;2.299205
5.390;0.861345;2.299669
5.400;0.859072;2.298940
5.410;0.856680;2.297241
5.420;0.853595;2.294839
5.430;0.849703;2.291974
5.440;0.845420;2.288817
5.450;0.841602;2.285410
5.460;0.839291;2.281593
5.470;0.839396;2.276997
5.480;0.842426;2.271147
5.490;0.848385;2.263662
5.500;0.856884;2.254423
5.510;0.867412;2.243610
5.520;0.879630;2.231568
5.530;0.893545;2.218574
5.540;0.909488;2.204635
5.550;0.927915;2.189421
5.560;0.949150;2.172350
5.570;0.973174;2.152792
5.580;0.999547;2.130254
5.590;1.027511;2.104509
5.600;1.056197;2.075635
5.610;1.084836;2.044020
5.620;1.112876;2.010369
5.630;1.139985;1.975697
5.640;1.165988;1.941236
5.650;1.190805;1.908260
5.660;1.214404;1.877858
5.670;1.236785;1.850751
5.680;1.257938;1.827210
5.690;1.277767;1.807131
5.700;1.295990;1.790193
5.710;1.312063;1.776054
5.720;1.325221;1.764471
5.730;1.334640;1.755316
5.740;1.339685;1.748503
5.750;1.340136;1.743890
5.760;1.336325;1.741209
5.770;1.329107;1.740053
5.780;1.319695;1.739939
5.790;1.309388;1.740409
5.800;1.299320;1.741118
5.810;1.290292;1.741873
5.820;1.282717;1.742611
5.830;1.276674;1.743354
5.840;1.272035;1.744151
5.850;1.268645;1.745034
5.860;1.266522;1.746000
5.870;1.265987;1.747024
5.880;1.267649;1.748120
5.890;1.272228;1.749403
5.900;1.280281;1.751112
5.910;1.291943;1.753535
5.920;1.306798;1.756865
5.930;1.323908;1.761050
5.940;1.342026;1.765798
5.950;1.359893;1.770765
5.960;1.376503;1.775849
5.970;1.391237;1.781404
5.980;1.403837;1.788206
5.990;1.414271;1.797153
6.000;1.422586;1.808825
6.010;1.428832;1.823123
6.020;1.433046;1.839176
6.030;1.435295;1.855548
6.040;1.435680;1.870665
6.050;1.434295;1.883256
6.060;1.431148;1.892662
6.070;1.426138;1.898881
6.080;1.419141;1.902406
6.090;1.410166;1.903988
6.100;1.399523;1.904457
6.110;1.387885;1.904657
6.120;1.376208;1.905387
6.130;1.365496;1.907297
6.140;1.356522;1.910704
6.150;1.349624;1.915416
6.160;1.344677;1.920691
6.170;1.341228;1.925352
6.180;1.338716;1.928076
6.190;1.336640;1.927748
6.200;1.334622;1.923778
6.210;1.332389;1.916287
6.220;1.329706;1.906043
6.230;1.326341;1.894192
6.240;1.322059;1.881844
6.250;1.316658;1.869689
6.260;1.310017;1.857759
6.270;1.302145;1.845465
6.280;1.293218;1.831890
6.290;1.283556;1.816211
6.300;1.273553;1.798101
6.310;1.263566;1.777914
6.320;1.253836;1.756643
6.330;1.244461;1.735676
6.340;1.235442;1.716460
6.350;1.226764;1.700203
6.360;1.218478;1.687648
6.370;1.210741;1.678977
6.380;1.203795;1.673834
6.390;1.197923;1.671469
6.400;1.193404;1.670998
6.410;1.190500;1.671672
6.420;1.189475;1.673069
6.430;1.190593;1.675130
6.440;1.194080;1.678081
6.450;1.200032;1.682302
6.460;1.208356;1.688226
6.470;1.218774;1.696238
6.480;1.230907;1.706551
6.490;1.244380;1.719051
6.500;1.258891;1.733178
6.510;1.274177;1.747911
6.520;1.289936;1.761942
6.530;1.305730;1.773976
6.540;1.320973;1.783073
6.550;1.334995;1.788877
6.560;1.347155;1.791638
6.570;1.356937;1.792061
6.580;1.364006;1.791058
6.590;1.368253;1.789537
6.600;1.369810;1.788283
6.610;1.369052;1.787922
6.620;1.366553;1.788887
6.630;1.362984;1.791343
6.640;1.358970;1.795082
6.650;1.354916;1.799520
6.660;1.350866;1.803839
6.670;1.346459;1.807285
6.680;1.341019;1.809466
6.690;1.333790;1.810492
6.700;1.324234;1.810897
6.710;1.312303;1.811363
6.720;1.298566;1.812432
6.730;1.284104;1.814298
6.740;1.270214;1.816761
6.750;1.258040;1.819315
6.760;1.248305;1.821280
6.770;1.241223;1.821955
6.780;1.236595;1.820782
6.790;1.234002;1.817519
6.800;1.233001;1.812351
6.810;1.233259;1.805870
6.820;1.234592;1.798911
6.830;1.236918;1.792298
6.840;1.240186;1.786605
6.850;1.244309;1.782007
6.860;1.249149;1.778263
6.870;1.254532;1.774866
6.880;1.260309;1.771287
6.890;1.266423;1.767221
6.900;1.272953;1.762731
6.910;1.280104;1.758212
6.920;1.288114;1.754236
6.930;1.297109;1.751347
6.940;1.306989;1.749924
6.950;1.317417;1.750123
6.960;1.327935;1.751898
6.970;1.338122;1.755030
6.980;1.347728;1.759151
6.990;1.356703;1.763783
7.000;1.365126;1.768419
7.010;1.373106;1.772669
7.020;1.380708;1.776396
7.030;1.387963;1.779767
7.040;1.394933;1.783166
7.050;1.401804;1.787034
7.060;1.408926;1.791725
7.070;1.416796;1.797441
7.080;1.425938;1.804223
7.090;1.436737;1.811969
7.100;1.449291;1.820444
7.110;1.463345;1.829269
7.120;1.478369;1.837916
7.130;1.493715;1.845767
7.140;1.508807;1.852248
7.150;1.523292;1.857003
7.160;1.537102;1.860031
7.170;1.550444;1.861731
7.180;1.563703;1.862839
7.190;1.577313;1.864248
7.200;1.591597;1.866731
7.210;1.606623;1.870656
7.220;1.622111;1.875837
7.230;1.637450;1.881617
7.240;1.651825;1.887153
7.250;1.664450;1.891782
7.260;1.674782;1.895271
7.270;1.682679;1.897859
7.280;1.688419;1.900062
7.290;1.692599;1.902380
7.300;1.695938;1.905048
7.310;1.699037;1.907955
7.320;1.702187;1.910735
7.330;1.705283;1.912933
7.340;1.707906;1.914144
7.350;1.709541;1.914071
7.360;1.709835;1.912541
7.370;1.708814;1.909512
7.380;1.706955;1.905110
7.390;1.705116;1.899656
7.400;1.704340;1.893643
7.410;1.705589;1.887657
7.420;1.709493;1.882261
7.430;1.716190;1.877906
7.440;1.725320;1.874916
7.450;1.736178;1.873547
7.460;1.747963;1.874018
7.470;1.760006;1.876461
7.480;1.771928;1.880789
7.490;1.783673;1.886618
7.500;1.795430;1.893311
7.510;1.807474;1.900153
7.520;1.819966;1.906570
7.530;1.832828;1.912301
7.540;1.845732;1.917465
7.550;1.858205;1.922509
7.560;1.869797;1.928049
7.570;1.880221;1.934660
7.580;1.889439;1.942703
7.590;1.897659;1.952244
7.600;1.905301;1.963072
7.610;1.912921;1.974821
7.620;1.921137;1.987109
7.630;1.930522;1.999647
7.640;1.941506;2.012268
7.650;1.954296;2.024890
7.660;1.968853;2.037461
7.670;1.984948;2.049922
7.680;2.002271;2.062223
7.690;2.020530;2.074368
7.700;2.039526;2.086442
7.710;2.059172;2.098591
7.720;2.079505;2.110986
7.730;2.100688;2.123785
7.740;2.123006;2.137128
7.750;2.146802;2.151121
7.760;2.172346;2.165783
7.770;2.199686;2.181011
7.780;2.228538;2.196593
7.790;2.258342;2.212284
7.800;2.288451;2.227901
7.810;2.318372;2.243361
7.820;2.347910;2.258645
7.830;2.377143;2.273715
7.840;2.406232;2.288459
7.850;2.435195;2.302681
7.860;2.463757;2.316130
7.870;2.491348;2.328566
7.880;2.517234;2.339839
7.890;2.540727;2.349997
7.900;2.561373;2.359366
7.910;2.579042;2.368551
7.920;2.593916;2.378295
7.930;2.606422;2.389242
7.940;2.617171;2.401726
7.950;2.626929;2.415707
7.960;2.636600;2.430891
7.970;2.647168;2.446954
7.980;2.659572;2.463736
7.990;2.674542;2.481289
8.000;2.692466;2.499728
8.010;2.713353;2.518975
8.020;2.736906;2.538571
8.030;2.762659;2.557730
8.040;2.790085;2.575622
8.050;2.818627;2.591768
8.060;2.847662;2.606282
8.070;2.876438;2.619818
8.080;2.904082;2.633233
8.090;2.929686;2.647163
8.100;2.952474;2.661700
8.110;2.971967;2.676323
8.120;2.988065;2.690052
8.130;3.000963;2.701786
8.140;3.010955;2.710680
8.150;3.018228;2.716419
8.160;3.022795;2.719264
8.170;3.024597;2.719890
8.180;3.023693;2.719130
8.190;3.020412;2.717763
8.200;3.015400;2.716405
8.210;3.009524;2.715473
8.220;3.003685;2.715172
8.230;2.998603;2.715493
8.240;2.994684;2.716237
8.250;2.992025;2.717091
8.260;2.990566;2.717746
8.270;2.990299;2.718033
8.280;2.991429;2.718005
8.290;2.994403;2.717916
8.300;2.999765;2.718116
8.310;3.007921;2.718903
