Time[s];COPx[cm];COPy[cm]
0.010;-1.738911;-1.886937
0.020;-1.712113;-1.906874
0.030;-1.684571;-1.927712
0.040;-1.655884;-1.949832
0.050;-1.626016;-1.973006
0.060;-1.595270;-1.996543
0.070;-1.564144;-2.019677
0.080;-1.533183;-2.041941
0.090;-1.502880;-2.063361
0.100;-1.473666;-2.084384
0.110;-1.445954;-2.105649
0.120;-1.420173;-2.127700
0.130;-1.396762;-2.150755
0.140;-1.376120;-2.174581
0.150;-1.358526;-2.198532
0.160;-1.344073;-2.221732
0.170;-1.332610;-2.243346
0.180;-1.323761;-2.262819
0.190;-1.317014;-2.279999
0.200;-1.311875;-2.295099
0.210;-1.308006;-2.308519
0.220;-1.305295;-2.320634
0.230;-1.303820;-2.331623
0.240;-1.303738;-2.341414
0.250;-1.305157;-2.349730
0.260;-1.308015;-2.356197
0.270;-1.312017;-2.360475
0.280;-1.316630;-2.362401
0.290;-1.321142;-2.362130
0.300;-1.324733;-2.360201
0.310;-1.326554;-2.357507
0.320;-1.325793;-2.355133
0.330;-1.321760;-2.354088
0.340;-1.313997;-2.355007
0.350;-1.302413;-2.357931
0.360;-1.287366;-2.362286
0.370;-1.269645;-2.367100
0.380;-1.250320;-2.371403
0.390;-1.230521;-2.374618
0.400;-1.211244;-2.376816
0.410;-1.193246;-2.378691
0.420;-1.177066;-2.381286
0.430;-1.163111;-2.385549
0.440;-1.151737;-2.391885
0.450;-1.143267;-2.399888
0.460;-1.137925;-2.408358
0.470;-1.135697;-2.415628
0.480;-1.136207;-2.420039
0.490;-1.138666;-2.420391
0.500;-1.141998;-2.416229
0.510;-1.145113;-2.407899
0.520;-1.147273;-2.396404
0.530;-1.148379;-2.383090
0.540;-1.149047;-2.369229
0.550;-1.150394;-2.355638
0.560;-1.153631;-2.342457
0.570;-1.159596;-2.329202
0.580;-1.168427;-2.315093
0.590;-1.179445;-2.299532
0.600;-1.191305;-2.282508
0.610;-1.202341;-2.264750
0.620;-1.210989;-2.247526
0.630;-1.216133;-2.232161
0.640;-1.217245;-2.219483
0.650;-1.214305;-2.209420
0.660;-1.207611;-2.200912
0.670;-1.197578;-2.192171
0.680;-1.184631;-2.181199
0.690;-1.169148;-2.166383
0.700;-1.151439;-2.146964
0.710;-1.131697;-2.123193
0.720;-1.109945;-2.096154
0.730;-1.085989;-2.067352
0.740;-1.059421;-2.038268
0.750;-1.029696;-2.010036
0.760;-0.996266;-1.983338
0.770;-0.958755;-1.958495
0.780;-0.917141;-1.935627
0.790;-0.871862;-1.914773
0.800;-0.823798;-1.895882
0.810;-0.774085;-1.878719
0.820;-0.723815;-1.862781
0.830;-0.673755;-1.847354
0.840;-0.624194;-1.831687
0.850;-0.574986;-1.815217
0.860;-0.525771;-1.797722
0.870;-0.476262;-1.779323
0.880;-0.426473;-1.760377
0.890;-0.376820;-1.741329
0.900;-0.328078;-1.722624
0.910;-0.281230;-1.704701
0.920;-0.237233;-1.688004
0.930;-0.196759;-1.672987
0.940;-0.160026;-1.660058
0.950;-0.126792;-1.649513
0.960;-0.096518;-1.641505
0.970;-0.068626;-1.636077
0.980;-0.042692;-1.633274
0.990;-0.018524;-1.633264
1.000;0.003904;-1.636380
1.010;0.024573;-1.643013
1.020;0.043525;-1.653385
1.030;0.060885;-1.667311
1.040;0.076791;-1.684104
1.050;0.091291;-1.702682
1.060;0.104279;-1.721845
1.070;0.115527;-1.740608
1.080;0.124795;-1.758465
1.090;0.131954;-1.775480
1.100;0.137071;-1.792200
1.110;0.140405;-1.809457
1.120;0.142323;-1.828146
1.130;0.143148;-1.849037
1.140;0.143013;-1.872654
1.150;0.141804;-1.899208
1.160;0.139218;-1.928566
1.170;0.134941;-1.960233
1.180;0.128863;-1.993344
1.190;0.121238;-2.026743
1.200;0.112711;-2.059174
1.210;0.104193;-2.089540
1.220;0.096593;-2.117130
1.230;0.090498;-2.141698
1.240;0.085932;-2.163403
1.250;0.082275;-2.182634
1.260;0.078376;-2.199823
1.270;0.072792;-2.215305
1.280;0.064084;-2.229232
1.290;0.051113;-2.241574
1.300;0.033300;-2.252199
1.310;0.010839;-2.260995
1.320;-0.015193;-2.268011
1.330;-0.042856;-2.273527
1.340;-0.069575;-2.278053
1.350;-0.092602;-2.282256
1.360;-0.109632;-2.286842
1.370;-0.119355;-2.292424
1.380;-0.121738;-2.299406
1.390;-0.117883;-2.307899
1.400;-0.109581;-2.317722
1.410;-0.098746;-2.328470
1.420;-0.086972;-2.339647
1.430;-0.075302;-2.350812
1.440;-0.064240;-2.361714
1.450;-0.053908;-2.372376
1.460;-0.044271;-2.383101
1.470;-0.035304;-2.394410
1.480;-0.027070;-2.406930
1.490;-0.019673;-2.421249
1.500;-0.013153;-2.437776
1.510;-0.007362;-2.456638
1.520;-0.001890;-2.477661
1.530;0.003886;-2.500408
1.540;0.010644;-2.524274
1.550;0.018877;-2.548555
1.560;0.028670;-2.572477
1.570;0.039602;-2.595195
1.580;0.050799;-2.615805
1.590;0.061153;-2.633404
1.600;0.069633;-2.647194
1.610;0.075582;-2.656586
1.620;0.078900;-2.661263
1.630;0.080032;-2.661216
1.640;0.079798;-2.656746
1.650;0.079102;-2.648475
1.660;0.078632;-2.637326
1.670;0.078658;-2.624453
1.680;0.078976;-2.611082
1.690;0.079038;-2.598312
1.700;0.078158;-2.586923
1.710;0.075725;-2.577217
1.720;0.071325;-2.568946
1.730;0.064769;-2.561355
1.740;0.056065;-2.553342
1.750;0.045410;-2.543717
1.760;0.033200;-2.531482
1.770;0.020035;-2.516046
1.780;0.006640;-2.497299
1.790;-0.006286;-2.475557
1.800;-0.018261;-2.451423
1.810;-0.029170;-2.425656
1.820;-0.039327;-2.399075
1.830;-0.049430;-2.372501
1.840;-0.060407;-2.346695
1.850;-0.073211;-2.322295
1.860;-0.088596;-2.299734
1.870;-0.106978;-2.279193
1.880;-0.128399;-2.260623
1.890;-0.152597;-2.243858
1.900;-0.179118;-2.228749
1.910;-0.207445;-2.215249
1.920;-0.237117;-2.203371
1.930;-0.267829;-2.193071
1.940;-0.299494;-2.184132
1.950;-0.332250;-2.176138
1.960;-0.366438;-2.168547
1.970;-0.402532;-2.160827
1.980;-0.441043;-2.152619
1.990;-0.482383;-2.143885
2.000;-0.526746;-2.135006
2.010;-0.574025;-2.126760
2.020;-0.623814;-2.120196
2.030;-0.675496;-2.116410
2.040;-0.728408;-2.116342
2.050;-0.782020;-2.120645
2.060;-0.836061;-2.129664
2.070;-0.890541;-2.143488
2.080;-0.945661;-2.161984
2.090;-1.001684;-2.184771
2.100;-1.058805;-2.211159
2.110;-1.117035;-2.240152
2.120;-1.176126;-2.270571
2.130;-1.235528;-2.301315
2.140;-1.294418;-2.331657
2.150;-1.351811;-2.361413
2.160;-1.406721;-2.390903
2.170;-1.458350;-2.420679
2.180;-1.506254;-2.451181
2.190;-1.550432;-2.482469
2.200;-1.591305;-2.514119
2.210;-1.629587;-2.545307
2.220;-1.666101;-2.575016
2.230;-1.701613;-2.602285
2.240;-1.736732;-2.626396
2.250;-1.771887;-2.646958
2.260;-1.807384;-2.663865
2.270;-1.843490;-2.677185
2.280;-1.880499;-2.687046
2.290;-1.918721;-2.693574
2.300;-1.958344;-2.696905
2.310;-1.999220;-2.697259
2.320;-2.040672;-2.695038
2.330;-2.081464;-2.690872
2.340;-2.120009;-2.685565
2.350;-2.154786;-2.679927
2.360;-2.184763;-2.674564
2.370;-2.209664;-2.669741
2.380;-2.229948;-2.665363
2.390;-2.246534;-2.661091
2.400;-2.260393;-2.656517
2.410;-2.272158;-2.651324
2.420;-2.281915;-2.645385
2.430;-2.289258;-2.638804
2.440;-2.293568;-2.631890
2.450;-2.294377;-2.625094
2.460;-2.291653;-2.618874
2.470;-2.285922;-2.613536
2.480;-2.278187;-2.609079
2.490;-2.269688;-2.605127
2.500;-2.261555;-2.600974
2.510;-2.254459;-2.595765
2.520;-2.248373;-2.588745
2.530;-2.242565;-2.579478
2.540;-2.235852;-2.567970
2.550;-2.227058;-2.554679
2.560;-2.215487;-2.540434
2.570;-2.201240;-2.526292
2.580;-2.185261;-2.513339
2.590;-2.169070;-2.502467
2.600;-2.154297;-2.494188
2.610;-2.142134;-2.488542
2.620;-2.132910;-2.485136
2.630;-2.125928;-2.483344
2.640;-2.119652;-2.482581
2.650;-2.112188;-2.482550
2.660;-2.101899;-2.483352
2.670;-2.087939;-2.485419
2.680;-2.070503;-2.489327
2.690;-2.050735;-2.495570
2.700;-2.030332;-2.504366
2.710;-2.011031;-2.515546
2.720;-1.994162;-2.528569
2.730;-1.980404;-2.542671
2.740;-1.969797;-2.557071
2.750;-1.961950;-2.571148
2.760;-1.956338;-2.584494
2.770;-1.952574;-2.596856
2.780;-1.950589;-2.608047
2.790;-1.950674;-2.617926
2.800;-1.953388;-2.626452
2.810;-1.959381;-2.633730
2.820;-1.969168;-2.639971
2.830;-1.982939;-2.645357
2.840;-2.000447;-2.649882
2.850;-2.021031;-2.653285
2.860;-2.043761;-2.655145
2.870;-2.067658;-2.655058
2.880;-2.091882;-2.652840
2.890;-2.115849;-2.648643
2.900;-2.139248;-2.642943
2.910;-2.161978;-2.636396
2.920;-2.184060;-2.629601
2.930;-2.205574;-2.622875
2.940;-2.226637;-2.616159
2.950;-2.247406;-2.609089
2.960;-2.268075;-2.601170
2.970;-2.288826;-2.591968
2.980;-2.309762;-2.581231
2.990;-2.330869;-2.568931
3.000;-2.352055;-2.555253
3.010;-2.373267;-2.540540
3.020;-2.394620;-2.525197
3.030;-2.416466;-2.509566
3.040;-2.439357;-2.493804
3.050;-2.463901;-2.477832
3.060;-2.490560;-2.461388
3.070;-2.519488;-2.444167
3.080;-2.550489;-2.425989
3.090;-2.583154;-2.406905
3.100;-2.617095;-2.387183
3.110;-2.652146;-2.367178
3.120;-2.688398;-2.347153
3.130;-2.726050;-2.327140
3.140;-2.765171;-2.306900
3.150;-2.805487;-2.285998
3.160;-2.846290;-2.263914
3.170;-2.886472;-2.240170
3.180;-2.924697;-2.214393
3.190;-2.959669;-2.186373
3.200;-2.990425;-2.156115
3.210;-3.016572;-2.123946
3.220;-3.038326;-2.090610
3.230;-3.056328;-2.057284
3.240;-3.071275;-2.025423
3.250;-3.083520;-1.996466
3.260;-3.092806;-1.971500
3.270;-3.098224;-1.951048
3.280;-3.098467;-1.935019
3.290;-3.092304;-1.922833
3.300;-3.079120;-1.913627
3.310;-3.059280;-1.906476
3.320;-3.034120;-1.900588
3.330;-3.005546;-1.895413
3.340;-2.975456;-1.890636
3.350;-2.945254;-1.886075
3.360;-2.915651;-1.881572
3.370;-2.886791;-1.876953
3.380;-2.858561;-1.872108
3.390;-2.830891;-1.867130
3.400;-2.803919;-1.862432
3.410;-2.777929;-1.858760
3.420;-2.753131;-1.857066
3.430;-2.729422;-1.858289
3.440;-2.706246;-1.863141
3.450;-2.682681;-1.872019
3.460;-2.657723;-1.885045
3.470;-2.630698;-1.902167
3.480;-2.601629;-1.923209
3.490;-2.571421;-1.947841
3.500;-2.541750;-1.975507
3.510;-2.514691;-2.005395
3.520;-2.492182;-2.036473
3.530;-2.475517;-2.067566
3.540;-2.465007;-2.097463
3.550;-2.459933;-2.125058
3.560;-2.458785;-2.149521
3.570;-2.459721;-2.170442
3.580;-2.461110;-2.187885
3.590;-2.461954;-2.202311
3.600;-2.462058;-2.214372
3.610;-2.461892;-2.224660
3.620;-2.462228;-2.233491
3.630;-2.463719;-2.240840
3.640;-2.466590;-2.246450
3.650;-2.470556;-2.250076
3.660;-2.474987;-2.251752
3.670;-2.479227;-2.251919
3.680;-2.482937;-2.251350
3.690;-2.486289;-2.250897
3.700;-2.489931;-2.251200
3.710;-2.494715;-2.252523
3.720;-2.501289;-2.254775
3.730;-2.509710;-2.257691
3.740;-2.519246;-2.261054
3.750;-2.528450;-2.264853
3.760;-2.535511;-2.269308
3.770;-2.538755;-2.274746
3.780;-2.537129;-2.281411
3.790;-2.530515;-2.289292
3.800;-2.519756;-2.298085
3.810;-2.506403;-2.307310
3.820;-2.492268;-2.316558
3.830;-2.478935;-2.325710
3.840;-2.467378;-2.335018
3.850;-2.457804;-2.344954
3.860;-2.449706;-2.355914
3.870;-2.442136;-2.367933
3.880;-2.434075;-2.380573
3.890;-2.424829;-2.393010
3.900;-2.414293;-2.404269
3.910;-2.403008;-2.413474
3.920;-2.391962;-2.420047
3.930;-2.382232;-2.423776
3.940;-2.374608;-2.424777
3.950;-2.369365;-2.423363
3.960;-2.366258;-2.419896
3.970;-2.364715;-2.414691
3.980;-2.364098;-2.408020
3.990;-2.363901;-2.400189
4.000;-2.363830;-2.391607
4.010;-2.363827;-2.382783
4.020;-2.364076;-2.374244
4.030;-2.365040;-2.366431
4.040;-2.367429;-2.359619
4.050;-2.372080;-2.353879
4.060;-2.379715;-2.349100
4.070;-2.390673;-2.345051
4.080;-2.404726;-2.341480
4.090;-2.421048;-2.338205
4.100;-2.438381;-2.335126
4.110;-2.455341;-2.332130
4.120;-2.470752;-2.328938
4.130;-2.483925;-2.324993
4.140;-2.494800;-2.319519
4.150;-2.503925;-2.311763
4.160;-2.512257;-2.301326
4.170;-2.520791;-2.288405
4.180;-2.530065;-2.273790
4.190;-2.539686;-2.258613
4.200;-2.548080;-2.243966
4.210;-2.552635;-2.230566
4.220;-2.550299;-2.218629
4.230;-2.538445;-2.207979
4.240;-2.515704;-2.198338
4.250;-2.482449;-2.189596
4.260;-2.440746;-2.181919
4.270;-2.393830;-2.175654
4.280;-2.345288;-2.171109
4.290;-2.298235;-2.168356
4.300;-2.254722;-2.167154
4.310;-2.215554;-2.167023
4.320;-2.180520;-2.167414
4.330;-2.148890;-2.167906
4.340;-2.119919;-2.168337
4.350;-2.093140;-2.168840
4.360;-2.068380;-2.169753
4.370;-2.045581;-2.171463
4.380;-2.024628;-2.174239
4.390;-2.005305;-2.178127
4.400;-1.987377;-2.182943
4.410;-1.970718;-2.188356
4.420;-1.955369;-2.194041
4.430;-1.941485;-2.199832
4.440;-1.929212;-2.205834
4.450;-1.918552;-2.212409
4.460;-1.909284;-2.220052
4.470;-1.900959;-2.229160
4.480;-1.892973;-2.239829
4.490;-1.884695;-2.251767
4.500;-1.875612;-2.264364
4.510;-1.865429;-2.276884
4.520;-1.854052;-2.288642
4.530;-1.841485;-2.299109
4.540;-1.827682;-2.307949
4.550;-1.812482;-2.315027
4.560;-1.795627;-2.320439
4.570;-1.776854;-2.324563
4.580;-1.755966;-2.328091
4.590;-1.732851;-2.332004
4.600;-1.707477;-2.337465
4.610;-1.679938;-2.345619
4.620;-1.650536;-2.357331
4.630;-1.619879;-2.372945
4.640;-1.588886;-2.392154
4.650;-1.558659;-2.414055
4.660;-1.530271;-2.437368
4.670;-1.504535;-2.460743
4.680;-1.481863;-2.483046
4.690;-1.462273;-2.503542
4.700;-1.445528;-2.521948
4.710;-1.431336;-2.538361
4.720;-1.419504;-2.553101
4.730;-1.409975;-2.566527
4.740;-1.402762;-2.578888
4.750;-1.397859;-2.590268
4.760;-1.395186;-2.600624
4.770;-1.394634;-2.609891
4.780;-1.396121;-2.618076
4.790;-1.399614;-2.625309
4.800;-1.405053;-2.631826
4.810;-1.412246;-2.637904
4.820;-1.420794;-2.643758
4.830;-1.430132;-2.649420
4.840;-1.439647;-2.654668
4.850;-1.448831;-2.659066
4.860;-1.457362;-2.662162
4.870;-1.465081;-2.663774
4.880;-1.471879;-2.664214
4.890;-1.477571;-2.664277
4.900;-1.481856;-2.664987
4.910;-1.484387;-2.667200
4.920;-1.484930;-2.671284
4.930;-1.483529;-2.676994
4.940;-1.480600;-2.683557
4.950;-1.476900;-2.689893
4.960;-1.473357;-2.694907
4.970;-1.470844;-2.697773
4.980;-1.469943;-2.698142
4.990;-1.470795;-2.696192
5.000;-1.473070;-2.692523
5.010;-1.476044;-2.687911
5.020;-1.478781;-2.683004
5.030;-1.480373;-2.678073
5.040;-1.480195;-2.672896
5.050;-1.478078;-2.666848
5.060;-1.474351;-2.659163
5.070;-1.469767;-2.649282
5.080;-1.465319;-2.637110
5.090;-1.462006;-2.623085
5.100;-1.460567;-2.608046
5.110;-1.461255;-2.592976
5.120;-1.463727;-2.578756
5.130;-1.467103;-2.566023
5.140;-1.470207;-2.555178
5.150;-1.471909;-2.546487
5.160;-1.471439;-2.540184
5.170;-1.468573;-2.536475
5.180;-1.463636;-2.535451
5.190;-1.457368;-2.536953
5.200;-1.450714;-2.540501
5.210;-1.444585;-2.545321
5.220;-1.439648;-2.550475
5.230;-1.436191;-2.555059
5.240;-1.434107;-2.558395
5.250;-1.432988;-2.560191
5.260;-1.432288;-2.560610
5.270;-1.431485;-2.560220
5.280;-1.430197;-2.559834
5.290;-1.428226;-2.560253
5.300;-1.425544;-2.562007
5.310;-1.422265;-2.565194
5.320;-1.418578;-2.569535
5.330;-1.414679;-2.574637
5.340;-1.410686;-2.580317
5.350;-1.406591;-2.586810
5.360;-1.402272;-2.594713
5.370;-1.397550;-2.604703
5.380;-1.392271;-2.617159
5.390;-1.386357;-2.631882
5.400;-1.379830;-2.648067
5.410;-1.372810;-2.664536
5.420;-1.365519;-2.680120
5.430;-1.358261;-2.694016
5.440;-1.351360;-2.705985
5.450;-1.345063;-2.716325
5.460;-1.339448;-2.725676
5.470;-1.334379;-2.734749
5.480;-1.329544;-2.744103
5.490;-1.324554;-2.754011
5.500;-1.319078;-2.764438
5.510;-1.312948;-2.775123
5.520;-1.306187;-2.785719
5.530;-1.298966;-2.795942
5.540;-1.291492;-2.805684
5.550;-1.283916;-2.815066
5.560;-1.276295;-2.824422
5.570;-1.268617;-2.834208
5.580;-1.260853;-2.844854
5.590;-1.252995;-2.856609
5.600;-1.245076;-2.869447
5.610;-1.237160;-2.883060
5.620;-1.229328;-2.896962
5.630;-1.221648;-2.910653
5.640;-1.214133;-2.923821
5.650;-1.206719;-2.936495
5.660;-1.199271;-2.949073
5.670;-1.191611;-2.962176
5.680;-1.183559;-2.976401
5.690;-1.174932;-2.992062
5.700;-1.165537;-3.009054
5.710;-1.155175;-3.026913
5.720;-1.143659;-3.045044
5.730;-1.130836;-3.063007
5.740;-1.116569;-3.080730
5.750;-1.100716;-3.098556
5.760;-1.083131;-3.117116
5.770;-1.063698;-3.137099
5.780;-1.042393;-3.159014
5.790;-1.019330;-3.183067
5.800;-0.994770;-3.209126
5.810;-0.969084;-3.236782
5.820;-0.942694;-3.265444
5.830;-0.916009;-3.294474
5.840;-0.889366;-3.323339
5.850;-0.862975;-3.351729
5.860;-0.836912;-3.379578
5.870;-0.811175;-3.406991
5.880;-0.785783;-3.434099
5.890;-0.760875;-3.460904
5.900;-0.736771;-3.487156
5.910;-0.713989;-3.512318
5.920;-0.693217;-3.535631
5.930;-0.675243;-3.556292
5.940;-0.660840;-3.573702
5.950;-0.650623;-3.587691
5.960;-0.644911;-3.598615
5.970;-0.643659;-3.607268
5.980;-0.646482;-3.614635
5.990;-0.652789;-3.621619
6.000;-0.661959;-3.628815
6.010;-0.673481;-3.636406
6.020;-0.686984;-3.644153
6.030;-0.702166;-3.651490
6.040;-0.718664;-3.657708
6.050;-0.735944;-3.662213
6.060;-0.753277;-3.664771
6.070;-0.769808;-3.665646
6.080;-0.784715;-3.665554
6.090;-0.797359;-3.665451
6.100;-0.807358;-3.666230
6.110;-0.814560;-3.668488
6.120;-0.818936;-3.672421
6.130;-0.820478;-3.677896
6.140;-0.819160;-3.684610
6.150;-0.814985;-3.692229
6.160;-0.808087;-3.700451
6.170;-0.798826;-3.708968
6.180;-0.787819;-3.717401
6.190;-0.775890;-3.725265
6.200;-0.763951;-3.732013
6.210;-0.752856;-3.737160
6.220;-0.743283;-3.740418
6.230;-0.735691;-3.741781
6.240;-0.730356;-3.741517
6.250;-0.727459;-3.740087
6.260;-0.727145;-3.738018
6.270;-0.729538;-3.735739
6.280;-0.734683;-3.733419
6.290;-0.742481;-3.730866
6.300;-0.752648;-3.727594
6.310;-0.764774;-3.723034
6.320;-0.778430;-3.716805
6.330;-0.793302;-3.708900
6.340;-0.809251;-3.699687
6.350;-0.826305;-3.689741
6.360;-0.844566;-3.679600
6.370;-0.864097;-3.669587
6.380;-0.884844;-3.659783
6.390;-0.906626;-3.650148
6.400;-0.929198;-3.640708
6.410;-0.952315;-3.631684
6.420;-0.975782;-3.623515
6.430;-0.999457;-3.616716
6.440;-1.023238;-3.611660
6.450;-1.047036;-3.608392
6.460;-1.070768;-3.606611
6.470;-1.094379;-3.605836
6.480;-1.117882;-3.605683
6.490;-1.141407;-3.606073
6.500;-1.165179;-3.607281
6.510;-1.189444;-3.609794
6.520;-1.214350;-3.614063
6.530;-1.239847;-3.620271
6.540;-1.265639;-3.628243
6.550;-1.291195;-3.637553
6.560;-1.315785;-3.647764
6.570;-1.338558;-3.658669
6.580;-1.358631;-3.670406
6.590;-1.375190;-3.683391
6.600;-1.387569;-3.698108
6.610;-1.395311;-3.714883
6.620;-1.398201;-3.733737
6.630;-1.396310;-3.754394
6.640;-1.390029;-3.776422
6.650;-1.380069;-3.799416
6.660;-1.367390;-3.823141
6.670;-1.353051;-3.847584
6.680;-1.338024;-3.872907
6.690;-1.323022;-3.899357
6.700;-1.308386;-3.927181
6.710;-1.294060;-3.956592
6.720;-1.279638;-3.987759
6.730;-1.264511;-4.020786
6.740;-1.248083;-4.055637
6.750;-1.229989;-4.092059
6.760;-1.210260;-4.129536
6.770;-1.189352;-4.167342
6.780;-1.168015;-4.204696
6.790;-1.147079;-4.240926
6.800;-1.127240;-4.275550
6.810;-1.108945;-4.308243
6.820;-1.092374;-4.338726
6.830;-1.077503;-4.366715
6.840;-1.064177;-4.391938
6.850;-1.052173;-4.414212
6.860;-1.041212;-4.433540
6.870;-1.030972;-4.450189
6.880;-1.021096;-4.464707
6.890;-1.011251;-4.477854
6.900;-1.001187;-4.490442
6.910;-0.990783;-4.503156
6.920;-0.980055;-4.516415
6.930;-0.969135;-4.530328
6.940;-0.958241;-4.544733
6.950;-0.947654;-4.559278
6.960;-0.937700;-4.573513
6.970;-0.928737;-4.586961
6.980;-0.921131;-4.599169
6.990;-0.915222;-4.609739
7.000;-0.911286;-4.618372
7.010;-0.909506;-4.624925
7.020;-0.909973;-4.629495
7.030;-0.912698;-4.632468
7.040;-0.917633;-4.634515
7.050;-0.924679;-4.636472
7.060;-0.933684;-4.639167
7.070;-0.944462;-4.643226
7.080;-0.956823;-4.648931
7.090;-0.970607;-4.656160
7.100;-0.985720;-4.664425
7.110;-1.002149;-4.673019
7.120;-1.019966;-4.681214
7.130;-1.039330;-4.688472
7.140;-1.060450;-4.694595
7.150;-1.083526;-4.699745
7.160;-1.108673;-4.704295
7.170;-1.135846;-4.708552
7.180;-1.164809;-4.712491
7.190;-1.195122;-4.715678
7.200;-1.226147;-4.717444
7.210;-1.257046;-4.717256
7.220;-1.286779;-4.715081
7.230;-1.314122;-4.711583
7.240;-1.337745;-4.708037
7.250;-1.356359;-4.705999
7.260;-1.368917;-4.706883
7.270;-1.374806;-4.711590
7.280;-1.373976;-4.720338
7.290;-1.366957;-4.732718
7.300;-1.354710;-4.747931
7.310;-1.338366;-4.765118
7.320;-1.318918;-4.783639
7.330;-1.296998;-4.803196
7.340;-1.272823;-4.823743
7.350;-1.246295;-4.845246
7.360;-1.217219;-4.867417
7.370;-1.185530;-4.889585
7.380;-1.151474;-4.910780
7.390;-1.115695;-4.929977
7.400;-1.079196;-4.946358
7.410;-1.043207;-4.959489
7.420;-1.008996;-4.969347
7.430;-0.977688;-4.976203
7.440;-0.950159;-4.980372
7.450;-0.926999;-4.981959
7.460;-0.908549;-4.980719
7.470;-0.894974;-4.976135
7.480;-0.886327;-4.967664
7.490;-0.882595;-4.955026
7.500;-0.883696;-4.938385
7.510;-0.889439;-4.918336
7.520;-0.899463;-4.895723
7.530;-0.913193;-4.871366
7.540;-0.929840;-4.845843
7.550;-0.948450;-4.819418
7.560;-0.967985;-4.792127
7.570;-0.987437;-4.763979
7.580;-1.005940;-4.735155
7.590;-1.022863;-4.706139
7.600;-1.037872;-4.677695
7.610;-1.050913;-4.650667
7.620;-1.062131;-4.625670
7.630;-1.071736;-4.602779
7.640;-1.079859;-4.581399
7.650;-1.086460;-4.560384
7.660;-1.091299;-4.538409
7.670;-1.093982;-4.514442
7.680;-1.094077;-4.488115
7.690;-1.091300;-4.459810
7.700;-1.085701;-4.430425
