Time[s];COPx[cm];COPy[cm]
0.010;-1.438364;-3.481771
0.020;-1.447824;-3.490634
0.030;-1.457286;-3.498635
0.040;-1.466789;-3.505080
0.050;-1.476544;-3.509545
0.060;-1.486932;-3.511872
0.070;-1.498448;-3.512096
0.080;-1.511580;-3.510338
0.090;-1.526672;-3.506726
0.100;-1.543838;-3.501324
0.110;-1.562977;-3.494121
0.120;-1.583870;-3.485069
0.130;-1.606331;-3.474169
0.140;-1.630332;-3.461582
0.150;-1.656048;-3.447667
0.160;-1.683821;-3.432964
0.170;-1.714054;-3.418113
0.180;-1.747089;-3.403755
0.190;-1.783105;-3.390416
0.200;-1.822051;-3.378425
0.210;-1.863594;-3.367882
0.220;-1.907099;-3.358691
0.230;-1.951657;-3.350633
0.240;-1.996175;-3.343424
0.250;-2.039522;-3.336744
0.260;-2.080647;-3.330274
0.270;-2.118627;-3.323758
0.280;-2.152639;-3.317057
0.290;-2.181930;-3.310142
0.300;-2.205852;-3.303024
0.310;-2.223991;-3.295683
0.320;-2.236327;-3.288066
0.330;-2.243343;-3.280142
0.340;-2.245975;-3.271952
0.350;-2.245409;-3.263604
0.360;-2.242792;-3.255222
0.370;-2.238996;-3.246897
0.380;-2.234509;-3.238656
0.390;-2.229474;-3.230443
0.400;-2.223835;-3.222102
0.410;-2.217496;-3.213354
0.420;-2.210429;-3.203813
0.430;-2.202680;-3.193030
0.440;-2.194298;-3.180575
0.450;-2.185269;-3.166135
0.460;-2.175506;-3.149578
0.470;-2.164904;-3.130971
0.480;-2.153414;-3.110534
0.490;-2.141107;-3.088563
0.500;-2.128210;-3.065407
0.510;-2.115103;-3.041492
0.520;-2.102269;-3.017367
0.530;-2.090211;-2.993688
0.540;-2.079377;-2.971149
0.550;-2.070151;-2.950369
0.560;-2.062882;-2.931781
0.570;-2.057963;-2.915554
0.580;-2.055881;-2.901560
0.590;-2.057220;-2.889366
0.600;-2.062594;-2.878321
0.610;-2.072508;-2.867691
0.620;-2.087169;-2.856834
0.630;-2.106314;-2.845321
0.640;-2.129117;-2.832963
0.650;-2.154239;-2.819760
0.660;-2.180039;-2.805820
0.670;-2.204898;-2.791279
0.680;-2.227547;-2.776219
0.690;-2.247285;-2.760614
0.700;-2.263999;-2.744342
0.710;-2.277999;-2.727262
0.720;-2.289725;-2.709317
0.730;-2.299453;-2.690590
0.740;-2.307080;-2.671278
0.750;-2.312082;-2.651620
0.760;-2.313676;-2.631786
0.770;-2.311112;-2.611774
0.780;-2.303978;-2.591326
0.790;-2.292359;-2.569920
0.800;-2.276806;-2.546848
0.810;-2.258119;-2.521349
0.820;-2.237055;-2.492766
0.830;-2.214072;-2.460695
0.840;-2.189175;-2.425123
0.850;-2.161957;-2.386534
0.860;-2.131788;-2.345939
0.870;-2.098108;-2.304783
0.880;-2.060669;-2.264707
0.890;-2.019642;-2.227240
0.900;-1.975580;-2.193520
0.910;-1.929290;-2.164139
0.920;-1.881674;-2.139079
0.930;-1.833604;-2.117698
0.940;-1.785809;-2.098771
0.950;-1.738802;-2.080648
0.960;-1.692826;-2.061614
0.970;-1.647823;-2.040377
0.980;-1.603457;-2.016457
0.990;-1.559176;-1.990286
1.000;-1.514334;-1.962929
1.010;-1.468331;-1.935590
1.020;-1.420781;-1.909111
1.030;-1.371636;-1.883677
1.040;-1.321217;-1.858780
1.050;-1.270121;-1.833427
1.060;-1.219031;-1.806459
1.070;-1.168529;-1.776900
1.080;-1.118995;-1.744228
1.090;-1.070616;-1.708509
1.100;-1.023469;-1.670341
1.110;-0.977589;-1.630631
1.120;-0.932993;-1.590321
1.130;-0.889672;-1.550209
1.140;-0.847596;-1.510949
1.150;-0.806736;-1.473165
1.160;-0.767095;-1.437528
1.170;-0.728726;-1.404712
1.180;-0.691718;-1.375242
1.190;-0.656165;-1.349374
1.200;-0.622114;-1.327089
1.210;-0.589516;-1.308217
1.220;-0.558184;-1.292597
1.230;-0.527761;-1.280163
1.240;-0.497708;-1.270915
1.250;-0.467351;-1.264814
1.260;-0.436014;-1.261671
1.270;-0.403217;-1.261125
1.280;-0.368866;-1.262716
1.290;-0.333332;-1.266037
1.300;-0.297380;-1.270875
1.310;-0.261970;-1.277297
1.320;-0.228052;-1.285635
1.330;-0.196438;-1.296379
1.340;-0.167790;-1.310017
1.350;-0.142668;-1.326890
1.360;-0.121561;-1.347103
1.370;-0.104863;-1.370510
1.380;-0.092811;-1.396781
1.390;-0.085430;-1.425501
1.400;-0.082547;-1.456302
1.410;-0.083865;-1.488971
1.420;-0.089123;-1.523480
1.430;-0.098227;-1.559877
1.440;-0.111305;-1.598050
1.450;-0.128636;-1.637464
1.460;-0.150467;-1.677058
1.470;-0.176800;-1.715389
1.480;-0.207212;-1.751022
1.490;-0.240768;-1.782954
1.500;-0.276086;-1.810852
1.510;-0.311560;-1.834999
1.520;-0.345702;-1.856011
1.530;-0.377507;-1.874488
1.540;-0.406699;-1.890727
1.550;-0.433759;-1.904535
1.560;-0.459708;-1.915181
1.570;-0.485698;-1.921503
1.580;-0.512568;-1.922176
1.590;-0.540513;-1.916074
1.600;-0.568977;-1.902618
1.610;-0.596776;-1.882036
1.620;-0.622393;-1.855453
1.630;-0.644329;-1.824788
1.640;-0.661392;-1.792446
1.650;-0.672832;-1.760839
1.660;-0.678273;-1.731855
1.670;-0.677502;-1.706481
1.680;-0.670255;-1.684746
1.690;-0.656168;-1.666009
1.700;-0.634956;-1.649434
1.710;-0.606718;-1.634433
1.720;-0.572166;-1.620869
1.730;-0.532611;-1.608977
1.740;-0.489692;-1.599115
1.750;-0.445006;-1.591507
1.760;-0.399824;-1.586118
1.770;-0.355009;-1.582706
1.780;-0.311141;-1.580972
1.790;-0.268764;-1.580710
1.800;-0.228655;-1.581878
1.810;-0.191972;-1.584566
1.820;-0.160204;-1.588897
1.830;-0.134907;-1.594933
1.840;-0.117359;-1.602653
1.850;-0.108267;-1.612017
1.860;-0.107683;-1.623042
1.870;-0.115123;-1.635834
1.880;-0.129843;-1.650539
1.890;-0.151138;-1.667266
1.900;-0.178537;-1.686025
1.910;-0.211853;-1.706699
1.920;-0.251075;-1.729067
1.930;-0.296222;-1.752830
1.940;-0.347222;-1.777646
1.950;-0.403875;-1.803120
1.960;-0.465869;-1.828760
1.970;-0.532785;-1.853921
1.980;-0.604065;-1.877848
1.990;-0.678954;-1.899869
2.000;-0.756445;-1.919696
2.010;-0.835275;-1.937651
2.020;-0.913997;-1.954646
2.030;-0.991104;-1.971847
2.040;-1.065182;-1.990175
2.050;-1.135050;-2.009874
2.060;-1.199867;-2.030349
2.070;-1.259177;-2.050346
2.080;-1.312873;-2.068330
2.090;-1.361072;-2.082886
2.100;-1.403910;-2.092984
2.110;-1.441347;-2.098064
2.120;-1.473076;-2.098007
2.130;-1.498611;-2.093075
2.140;-1.517482;-2.083871
2.150;-1.529424;-2.071312
2.160;-1.534456;-2.056552
2.170;-1.532817;-2.040834
2.180;-1.524838;-2.025278
2.190;-1.510814;-2.010671
2.200;-1.490956;-1.997311
2.210;-1.465449;-1.984984
2.220;-1.434577;-1.973085
2.230;-1.398868;-1.960829
2.240;-1.359171;-1.947467
2.250;-1.316628;-1.932453
2.260;-1.272532;-1.915551
2.270;-1.228152;-1.896925
2.280;-1.184588;-1.877177
2.290;-1.142689;-1.857272
2.300;-1.103046;-1.838332
2.310;-1.066030;-1.821354
2.320;-1.031890;-1.806999
2.330;-1.000869;-1.795540
2.340;-0.973291;-1.786996
2.350;-0.949569;-1.781337
2.360;-0.930091;-1.778633
2.370;-0.915058;-1.779037
2.380;-0.904384;-1.782654
2.390;-0.897763;-1.789368
2.400;-0.894890;-1.798759
2.410;-0.895693;-1.810148
2.420;-0.900438;-1.822755
2.430;-0.909632;-1.835888
2.440;-0.923788;-1.849108
2.450;-0.943137;-1.862322
2.460;-0.967443;-1.875776
2.470;-0.995939;-1.889927
2.480;-1.027398;-1.905215
2.490;-1.060279;-1.921841
2.500;-1.092897;-1.939652
2.510;-1.123581;-1.958179
2.520;-1.150785;-1.976782
2.530;-1.173121;-1.994848
2.540;-1.189327;-2.011945
2.550;-1.198193;-2.027921
2.560;-1.198548;-2.042902
2.570;-1.189334;-2.057233
2.580;-1.169758;-2.071412
2.590;-1.139486;-2.086038
2.600;-1.098786;-2.101756
2.610;-1.048589;-2.119171
2.620;-0.990477;-2.138741
2.630;-0.926587;-2.160657
2.640;-0.859459;-2.184769
2.650;-0.791820;-2.210593
2.660;-0.726321;-2.237399
2.670;-0.665228;-2.264373
2.680;-0.610128;-2.290796
2.690;-0.561693;-2.316198
2.700;-0.519632;-2.340446
2.710;-0.482863;-2.363756
2.720;-0.449919;-2.386603
2.730;-0.419433;-2.409559
2.740;-0.390524;-2.433097
2.750;-0.362934;-2.457453
2.760;-0.336897;-2.482577
2.770;-0.312843;-2.508162
2.780;-0.291106;-2.533702
2.790;-0.271746;-2.558537
2.800;-0.254517;-2.581906
2.810;-0.238940;-2.603033
2.820;-0.224425;-2.621236
2.830;-0.210405;-2.636059
2.840;-0.196446;-2.647352
2.850;-0.182303;-2.655301
2.860;-0.167929;-2.660364
2.870;-0.153456;-2.663147
2.880;-0.139196;-2.664250
2.890;-0.125654;-2.664167
2.900;-0.113533;-2.663275
2.910;-0.103707;-2.661930
2.920;-0.097183;-2.660597
2.930;-0.095086;-2.659893
2.940;-0.098652;-2.660490
2.950;-0.109222;-2.662901
2.960;-0.128154;-2.667288
2.970;-0.156623;-2.673403
2.980;-0.195317;-2.680703
2.990;-0.244154;-2.688552
3.000;-0.302128;-2.696445
3.010;-0.367379;-2.704149
3.020;-0.437473;-2.711758
3.030;-0.509819;-2.719645
3.040;-0.582085;-2.728346
3.050;-0.652536;-2.738415
3.060;-0.720221;-2.750312
3.070;-0.784983;-2.764363
3.080;-0.847308;-2.780779
3.090;-0.908058;-2.799710
3.100;-0.968172;-2.821261
3.110;-1.028407;-2.845464
3.120;-1.089165;-2.872187
3.130;-1.150395;-2.901028
3.140;-1.211586;-2.931228
3.150;-1.271853;-2.961676
3.160;-1.330096;-2.991037
3.170;-1.385215;-3.018001
3.180;-1.436312;-3.041553
3.190;-1.482857;-3.061166
3.200;-1.524777;-3.076836
3.210;-1.562397;-3.088957
3.220;-1.596276;-3.098124
3.230;-1.626993;-3.104973
3.240;-1.654988;-3.110148
3.250;-1.680530;-3.114375
3.260;-1.703763;-3.118537
3.270;-1.724769;-3.123672
3.280;-1.743593;-3.130820
3.290;-1.760227;-3.140803
3.300;-1.774568;-3.154050
3.310;-1.786391;-3.170572
3.320;-1.795342;-3.190088
3.330;-1.801000;-3.212234
3.340;-1.802993;-3.236754
3.350;-1.801178;-3.263579
3.360;-1.795794;-3.292748
3.370;-1.787513;-3.324214
3.380;-1.777307;-3.357624
3.390;-1.766189;-3.392202
3.400;-1.754942;-3.426794
3.410;-1.743977;-3.460043
3.420;-1.733373;-3.490603
3.430;-1.723035;-3.517352
3.440;-1.712895;-3.539545
3.450;-1.703037;-3.556906
3.460;-1.693709;-3.569614
3.470;-1.685209;-3.578198
3.480;-1.677735;-3.583327
3.490;-1.671267;-3.585574
3.500;-1.665573;-3.585243
3.510;-1.660329;-3.582368
3.520;-1.655292;-3.576880
3.530;-1.650432;-3.568838
3.540;-1.645961;-3.558612
3.550;-1.642270;-3.546916
3.560;-1.639819;-3.534658
3.570;-1.639011;-3.522636
3.580;-1.640085;-3.511196
3.590;-1.643071;-3.500041
3.600;-1.647808;-3.488328
3.610;-1.654050;-3.475053
3.620;-1.661571;-3.459525
3.630;-1.670217;-3.441702
3.640;-1.679840;-3.422213
3.650;-1.690180;-3.402124
3.660;-1.700794;-3.382557
3.670;-1.711108;-3.364346
3.680;-1.720572;-3.347837
3.690;-1.728829;-3.332872
3.700;-1.735773;-3.318931
3.710;-1.741521;-3.305370
3.720;-1.746336;-3.291680
3.730;-1.750576;-3.277671
3.740;-1.754656;-3.263501
3.750;-1.759003;-3.249538
3.760;-1.763985;-3.236105
3.770;-1.769835;-3.223259
3.780;-1.776590;-3.210681
3.790;-1.784090;-3.197743
3.800;-1.792016;-3.183695
3.810;-1.799945;-3.167877
3.820;-1.807392;-3.149842
3.830;-1.813855;-3.129381
3.840;-1.818890;-3.106498
3.850;-1.822229;-3.081397
3.860;-1.823929;-3.054478
3.870;-1.824450;-3.026314
3.880;-1.824607;-2.997572
3.890;-1.825383;-2.968878
3.900;-1.827687;-2.940689
3.910;-1.832143;-2.913198
3.920;-1.838995;-2.886345
3.930;-1.848136;-2.859957
3.940;-1.859213;-2.833951
3.950;-1.871766;-2.808491
3.960;-1.885314;-2.784015
3.970;-1.899415;-2.761108
3.980;-1.913703;-2.740285
3.990;-1.927938;-2.721757
4.000;-1.942017;-2.705266
4.010;-1.955926;-2.690079
4.020;-1.969637;-2.675158
4.030;-1.983002;-2.659463
4.040;-1.995726;-2.642240
4.050;-2.007444;-2.623204
4.060;-2.017847;-2.602531
4.070;-2.026783;-2.580680
4.080;-2.034283;-2.558131
4.090;-2.040502;-2.535135
4.100;-2.045621;-2.511606
4.110;-2.049748;-2.487165
4.120;-2.052874;-2.461323
4.130;-2.054900;-2.433751
4.140;-2.055718;-2.404552
4.150;-2.055314;-2.374439
4.160;-2.053831;-2.344718
4.170;-2.051575;-2.317041
4.180;-2.048946;-2.293017
4.190;-2.046351;-2.273842
4.200;-2.044148;-2.260110
4.210;-2.042638;-2.251823
4.220;-2.042089;-2.248501
4.230;-2.042751;-2.249311
4.240;-2.044819;-2.253196
4.250;-2.048358;-2.259001
4.260;-2.053232;-2.265608
4.270;-2.059101;-2.272041
4.280;-2.065508;-2.277515
4.290;-2.072022;-2.281451
4.300;-2.078363;-2.283453
4.310;-2.084469;-2.283279
4.320;-2.090517;-2.280811
4.330;-2.096910;-2.276041
4.340;-2.104227;-2.269062
4.350;-2.113124;-2.260052
4.360;-2.124170;-2.249264
4.370;-2.137695;-2.237031
4.380;-2.153732;-2.223774
4.390;-2.172074;-2.209995
4.400;-2.192402;-2.196186
4.410;-2.214384;-2.182698
4.420;-2.237692;-2.169628
4.430;-2.261973;-2.156814
4.440;-2.286805;-2.143962
4.450;-2.311686;-2.130856
4.460;-2.336054;-2.117540
4.470;-2.359326;-2.104370
4.480;-2.380926;-2.091917
4.490;-2.400294;-2.080767
4.500;-2.416844;-2.071331
4.510;-2.429934;-2.063764
4.520;-2.438873;-2.058009
4.530;-2.442990;-2.053933
4.540;-2.441725;-2.051435
4.550;-2.434707;-2.050491
4.560;-2.421820;-2.051098
4.570;-2.403266;-2.053210
4.580;-2.379616;-2.056680
4.590;-2.351812;-2.061237
4.600;-2.321092;-2.066486
4.610;-2.288837;-2.071930
4.620;-2.256371;-2.077058
4.630;-2.224745;-2.081472
4.640;-2.194568;-2.084978
4.650;-2.165905;-2.087584
4.660;-2.138295;-2.089409
4.670;-2.110892;-2.090580
4.680;-2.082731;-2.091238
4.690;-2.053037;-2.091648
4.700;-2.021489;-2.092287
4.710;-1.988303;-2.093769
4.720;-1.954109;-2.096584
4.730;-1.919653;-2.100804
4.740;-1.885469;-2.105967
4.750;-1.851656;-2.111237
4.760;-1.817811;-2.115796
4.770;-1.783086;-2.119215
4.780;-1.746310;-2.121623
4.790;-1.706167;-2.123571
4.800;-1.661401;-2.125669
4.810;-1.611040;-2.128210
4.820;-1.554592;-2.130948
4.830;-1.492161;-2.133156
4.840;-1.424434;-2.133904
4.850;-1.352555;-2.132423
4.860;-1.277908;-2.128381
4.870;-1.201844;-2.121971
4.880;-1.125434;-2.113808
4.890;-1.049292;-2.104695
4.900;-0.973556;-2.095359
4.910;-0.897998;-2.086280
4.920;-0.822235;-2.077639
4.930;-0.745986;-2.069374
4.940;-0.669303;-2.061289
4.950;-0.592739;-2.053152
4.960;-0.517390;-2.044770
4.970;-0.444795;-2.036036
4.980;-0.376720;-2.026979
4.990;-0.314858;-2.017814
5.000;-0.260547;-2.008965
5.010;-0.214593;-2.001021
5.020;-0.177244;-1.994591
5.030;-0.148294;-1.990119
5.040;-0.127252;-1.987734
5.050;-0.113502;-1.987222
5.060;-0.106455;-1.988134
5.070;-0.105663;-1.989983
5.080;-0.110898;-1.992447
5.090;-0.122134;-1.995474
5.100;-0.139457;-1.999234
5.110;-0.162918;-2.003949
5.120;-0.192434;-2.009715
5.130;-0.227757;-2.016420
5.140;-0.268506;-2.023820
5.150;-0.314179;-2.031677
5.160;-0.364138;-2.039871
5.170;-0.417568;-2.048416
5.180;-0.473445;-2.057403
5.190;-0.530570;-2.066927
5.200;-0.587680;-2.077013
5.210;-0.643651;-2.087574
5.220;-0.697717;-2.098367
5.230;-0.749601;-2.109012
5.240;-0.799509;-2.119078
5.250;-0.847950;-2.128241
5.260;-0.895469;-2.136463
5.270;-0.942367;-2.144088
5.280;-0.988520;-2.151815
5.290;-1.033348;-2.160526
5.300;-1.075938;-2.171031
5.310;-1.115267;-2.183798
5.320;-1.150426;-2.198742
5.330;-1.180761;-2.215161
5.340;-1.205914;-2.231908
5.350;-1.225779;-2.247743
5.360;-1.240450;-2.261749
5.370;-1.250194;-2.273627
5.380;-1.255436;-2.283747
5.390;-1.256723;-2.292964
5.400;-1.254646;-2.302281
5.410;-1.249781;-2.312495
5.420;-1.242688;-2.323927
5.430;-1.233962;-2.336319
5.440;-1.224303;-2.348907
5.450;-1.214523;-2.360671
5.460;-1.205516;-2.370666
5.470;-1.198179;-2.378320
5.480;-1.193324;-2.383595
5.490;-1.191607;-2.386988
5.500;-1.193478;-2.389360
5.510;-1.199188;-2.391683
5.520;-1.208830;-2.394737
5.530;-1.222393;-2.398863
5.540;-1.239806;-2.403856
5.550;-1.260961;-2.409049
5.560;-1.285730;-2.413560
5.570;-1.313959;-2.416589
5.580;-1.345451;-2.417670
5.590;-1.379915;-2.416780
5.600;-1.416993;-2.414294
5.610;-1.456371;-2.410831
5.620;-1.497971;-2.407029
5.630;-1.542098;-2.403329
5.640;-1.589410;-2.399804
5.650;-1.640704;-2.396106
5.660;-1.696568;-2.391531
5.670;-1.757057;-2.385190
5.680;-1.821500;-2.376270
5.690;-1.888497;-2.364302
5.700;-1.956091;-2.349364
5.710;-2.022086;-2.332096
5.720;-2.084444;-2.313496
5.730;-2.141670;-2.294546
5.740;-2.193084;-2.275850
5.750;-2.238881;-2.257432
5.760;-2.279976;-2.238775
5.770;-2.317673;-2.219051
5.780;-2.353258;-2.197450
5.790;-2.387639;-2.173471
5.800;-2.421124;-2.147103
5.810;-2.453402;-2.118837
5.820;-2.483697;-2.089543
5.830;-2.511058;-2.060286
5.840;-2.534685;-2.032150
5.850;-2.554225;-2.006105
5.860;-2.569952;-1.982866
5.870;-2.582815;-1.962750
5.880;-2.594330;-1.945560
5.890;-2.606373;-1.930601
5.900;-2.620895;-1.916903
5.910;-2.639620;-1.903574
5.920;-2.663780;-1.890176
5.930;-2.693940;-1.876964
5.940;-2.729969;-1.864938
5.950;-2.771177;-1.855643
5.960;-2.816574;-1.850763
5.970;-2.865165;-1.851624
5.980;-2.916125;-1.858751
5.990;-2.968776;-1.871659
6.000;-3.022379;-1.888919
6.010;-3.075861;-1.908507
6.020;-3.127656;-1.928318
6.030;-3.175805;-1.946688
6.040;-3.218331;-1.962723
6.050;-3.253742;-1.976343
6.060;-3.281408;-1.988035
6.070;-3.301643;-1.998504
6.080;-3.315449;-2.008380
6.090;-3.324084;-2.018081
6.100;-3.328643;-2.027825
6.110;-3.329800;-2.037699
6.120;-3.327768;-2.047739
6.130;-3.322438;-2.057965
6.140;-3.313588;-2.068371
6.150;-3.301076;-2.078892
6.160;-3.284966;-2.089381
6.170;-3.265539;-2.099634
6.180;-3.243214;-2.109493
6.190;-3.218406;-2.118990
6.200;-3.191371;-2.128450
6.210;-3.162115;-2.138479
6.220;-3.130414;-2.149825
6.230;-3.095972;-2.163133
6.240;-3.058676;-2.178687
6.250;-3.018842;-2.196254
6.260;-2.977325;-2.215066
6.270;-2.935438;-2.233982
6.280;-2.894698;-2.251760
6.290;-2.856491;-2.267398
6.300;-2.821736;-2.280437
6.310;-2.790664;-2.291128
6.320;-2.762746;-2.300366
6.330;-2.736813;-2.309444
6.340;-2.711352;-2.319718
6.350;-2.684915;-2.332327
6.360;-2.656517;-2.347962
6.370;-2.625912;-2.366710
6.380;-2.593632;-2.387970
6.390;-2.560756;-2.410528
6.400;-2.528502;-2.432825
6.410;-2.497816;-2.453360
6.420;-2.469153;-2.471073
6.430;-2.442513;-2.485537
6.440;-2.417663;-2.496913
6.450;-2.394368;-2.505729
6.460;-2.372501;-2.512628
6.470;-2.352035;-2.518199
6.480;-2.332988;-2.522937
6.490;-2.315401;-2.527268
6.500;-2.299344;-2.531582
6.510;-2.284932;-2.536194
6.520;-2.272308;-2.541277
6.530;-2.261618;-2.546816
6.540;-2.252988;-2.552644
6.550;-2.246502;-2.558539
6.560;-2.242188;-2.564296
6.570;-2.240012;-2.569728
6.580;-2.239888;-2.574615
6.590;-2.241705;-2.578687
6.600;-2.245370;-2.581707
6.610;-2.250813;-2.583602
6.620;-2.257930;-2.584546
6.630;-2.266485;-2.584917
6.640;-2.276035;-2.585145
6.650;-2.285924;-2.585575
6.660;-2.295345;-2.586416
6.670;-2.303454;-2.587777
6.680;-2.309485;-2.589725
6.690;-2.312831;-2.592280
6.700;-2.313092;-2.595369
6.710;-2.310107;-2.598773
6.720;-2.303982;-2.602121
6.730;-2.295096;-2.604976
6.740;-2.284072;-2.606997
6.750;-2.271690;-2.608156
6.760;-2.258728;-2.608862
6.770;-2.245760;-2.609929
6.780;-2.232961;-2.612334
6.790;-2.220050;-2.616896
6.800;-2.206418;-2.624032
6.810;-2.191453;-2.633718
6.820;-2.174883;-2.645627
6.830;-2.156960;-2.659301
6.840;-2.138370;-2.674231
6.850;-2.119901;-2.689817
6.860;-2.102041;-2.705330
6.870;-2.084728;-2.720026
6.880;-2.067394;-2.733434
6.890;-2.049289;-2.745653
6.900;-2.029887;-2.757433
6.910;-2.009136;-2.769925
6.920;-1.987434;-2.784222
6.930;-1.965373;-2.800904
6.940;-1.943420;-2.819793
6.950;-1.921697;-2.839998
6.960;-1.899979;-2.860193
6.970;-1.877872;-2.879049
6.980;-1.855057;-2.895626
6.990;-1.831478;-2.909610
7.000;-1.807386;-2.921302
7.010;-1.783282;-2.931403
7.020;-1.759803;-2.940715
7.030;-1.737605;-2.949879
7.040;-1.717296;-2.959223
7.050;-1.699368;-2.968734
7.060;-1.684164;-2.978106
7.070;-1.671863;-2.986842
7.080;-1.662492;-2.994373
7.090;-1.655949;-3.000192
7.100;-1.652018;-3.003986
7.110;-1.650386;-3.005745
7.120;-1.650686;-3.005790
7.130;-1.652551;-3.004686
7.140;-1.655644;-3.003053
7.150;-1.659630;-3.001357
7.160;-1.664120;-2.999789
7.170;-1.668642;-2.998289
7.180;-1.672666;-2.996676
7.190;-1.675640;-2.994785
7.200;-1.676994;-2.992508
7.210;-1.676107;-2.989744
7.220;-1.672277;-2.986310
7.230;-1.664739;-2.981951
7.240;-1.652717;-2.976459
7.250;-1.635494;-2.969821
7.260;-1.612453;-2.962278
7.270;-1.583132;-2.954269
7.280;-1.547255;-2.946259
7.290;-1.504755;-2.938520
7.300;-1.455764;-2.930958
7.310;-1.400581;-2.923051
7.320;-1.339646;-2.913938
7.330;-1.273514;-2.902624
7.340;-1.202841;-2.888215
7.350;-1.128340;-2.870136
7.360;-1.050716;-2.848277
7.370;-0.970599;-2.823013
7.380;-0.888531;-2.795094
7.390;-0.805027;-2.765429
7.400;-0.720686;-2.734863
7.410;-0.636296;-2.704033
7.420;-0.552908;-2.673321
7.430;-0.471846;-2.642911
7.440;-0.394617;-2.612899
7.450;-0.322729;-2.583414
7.460;-0.257430;-2.554669
7.470;-0.199472;-2.526916
7.480;-0.148970;-2.500320
7.490;-0.105417;-2.474844
7.500;-0.067858;-2.450230
7.510;-0.035180;-2.426093
7.520;-0.006443;-2.402071
7.530;0.018846;-2.377937
7.540;0.040646;-2.353598
7.550;0.058505;-2.329005
7.560;0.071865;-2.304008
7.570;0.080428;-2.278259
7.580;0.084411;-2.251229
7.590;0.084589;-2.222378
7.600;0.082123;-2.191404
7.610;0.078284;-2.158486
7.620;0.074194;-2.124363
7.630;0.070683;-2.090204
7.640;0.068270;-2.057269
7.650;0.067209;-2.026555
7.660;0.067538;-1.998552
7.670;0.069126;-1.973236
7.680;0.071714;-1.950196
