Time[s];COPx[cm];COPy[cm]
0.010;0.785130;-0.461017
0.020;0.789623;-0.457603
0.030;0.794757;-0.454420
0.040;0.801101;-0.451681
0.050;0.809074;-0.449606
0.060;0.818846;-0.448366
0.070;0.830298;-0.448016
0.080;0.843081;-0.448457
0.090;0.856748;-0.449502
0.100;0.870885;-0.451003
0.110;0.885190;-0.452979
0.120;0.899503;-0.455631
0.130;0.913827;-0.459208
0.140;0.928340;-0.463774
0.150;0.943384;-0.469033
0.160;0.959403;-0.474358
0.170;0.976844;-0.479025
0.180;0.996045;-0.482561
0.190;1.017125;-0.485004
0.200;1.039895;-0.486936
0.210;1.063806;-0.489292
0.220;1.087972;-0.493028
0.230;1.111304;-0.498809
0.240;1.132727;-0.506823
0.250;1.151429;-0.516776
0.260;1.167057;-0.528024
0.270;1.179759;-0.539776
0.280;1.190076;-0.551284
0.290;1.198725;-0.562001
0.300;1.206375;-0.571683
0.310;1.213479;-0.580415
0.320;1.220217;-0.588554
0.330;1.226519;-0.596571
0.340;1.232172;-0.604858
0.350;1.236950;-0.613569
0.360;1.240729;-0.622559
0.370;1.243537;-0.631451
0.380;1.245521;-0.639776
0.390;1.246845;-0.647127
0.400;1.247593;-0.653251
0.410;1.247701;-0.658093
0.420;1.246977;-0.661772
0.430;1.245190;-0.664536
0.440;1.242203;-0.666685
0.450;1.238108;-0.668493
0.460;1.233269;-0.670153
0.470;1.228214;-0.671746
0.480;1.223409;-0.673251
0.490;1.219002;-0.674556
0.500;1.214686;-0.675494
0.510;1.209739;-0.675882
0.520;1.203243;-0.675590
0.530;1.194377;-0.674601
0.540;1.182684;-0.673026
0.550;1.168222;-0.671066
0.560;1.151596;-0.668952
0.570;1.133891;-0.666905
0.580;1.116517;-0.665116
0.590;1.100979;-0.663730
0.600;1.088582;-0.662831
0.610;1.080126;-0.662431
0.620;1.075698;-0.662497
0.630;1.074631;-0.662982
0.640;1.075651;-0.663836
0.650;1.077180;-0.665002
0.660;1.077697;-0.666427
0.670;1.076047;-0.668098
0.680;1.071631;-0.670086
0.690;1.064408;-0.672526
0.700;1.054745;-0.675524
0.710;1.043166;-0.679044
0.720;1.030105;-0.682859
0.730;1.015719;-0.686595
0.740;0.999835;-0.689832
0.750;0.982032;-0.692212
0.760;0.961848;-0.693510
0.770;0.939037;-0.693673
0.780;0.913771;-0.692784
0.790;0.886687;-0.690991
0.800;0.858739;-0.688441
0.810;0.830950;-0.685261
0.820;0.804147;-0.681585
0.830;0.778780;-0.677581
0.840;0.754873;-0.673458
0.850;0.732113;-0.669444
0.860;0.709990;-0.665705
0.870;0.687955;-0.662236
0.880;0.665541;-0.658770
0.890;0.642484;-0.654804
0.900;0.618842;-0.649788
0.910;0.595084;-0.643384
0.920;0.572069;-0.635662
0.930;0.550923;-0.627123
0.940;0.532838;-0.618542
0.950;0.518886;-0.610708
0.960;0.509875;-0.604176
0.970;0.506256;-0.599111
0.980;0.508083;-0.595308
0.990;0.515038;-0.592369
1.000;0.526541;-0.589951
1.010;0.541898;-0.587951
1.020;0.560416;-0.586531
1.030;0.581457;-0.585988
1.040;0.604424;-0.586554
1.050;0.628744;-0.588260
1.060;0.653845;-0.590931
1.070;0.679157;-0.594289
1.080;0.704158;-0.598061
1.090;0.728470;-0.602030
1.100;0.751955;-0.606011
1.110;0.774752;-0.609820
1.120;0.797183;-0.613280
1.130;0.819539;-0.616263
1.140;0.841851;-0.618723
1.150;0.863739;-0.620697
1.160;0.884435;-0.622250
1.170;0.902971;-0.623419
1.180;0.918426;-0.624193
1.190;0.930147;-0.624558
1.200;0.937877;-0.624572
1.210;0.941768;-0.624389
1.220;0.942303;-0.624203
1.230;0.940158;-0.624143
1.240;0.936049;-0.624189
1.250;0.930603;-0.624162
1.260;0.924285;-0.623761
1.270;0.917403;-0.622646
1.280;0.910177;-0.620505
1.290;0.902829;-0.617132
1.300;0.895634;-0.612500
1.310;0.888916;-0.606834
1.320;0.882994;-0.600616
1.330;0.878114;-0.594483
1.340;0.874403;-0.589052
1.350;0.871876;-0.584722
1.360;0.870478;-0.581574
1.370;0.870132;-0.579392
1.380;0.870761;-0.577808
1.390;0.872264;-0.576501
1.400;0.874461;-0.575360
1.410;0.877043;-0.574556
1.420;0.879582;-0.574492
1.430;0.881632;-0.575671
1.440;0.882909;-0.578484
1.450;0.883435;-0.583036
1.460;0.883554;-0.589077
1.470;0.883759;-0.596090
1.480;0.884396;-0.603495
1.490;0.885378;-0.610862
1.500;0.886043;-0.618027
1.510;0.885221;-0.625060
1.520;0.881512;-0.632131
1.530;0.873689;-0.639374
1.540;0.861126;-0.646835
1.550;0.844083;-0.654526
1.560;0.823735;-0.662518
1.570;0.801888;-0.671024
1.580;0.780495;-0.680381
1.590;0.761149;-0.690972
1.600;0.744765;-0.703103
1.610;0.731509;-0.716912
1.620;0.720966;-0.732308
1.630;0.712446;-0.748930
1.640;0.705297;-0.766147
1.650;0.699152;-0.783124
1.660;0.694042;-0.798987
1.670;0.690394;-0.813066
1.680;0.688927;-0.825120
1.690;0.690473;-0.835423
1.700;0.695730;-0.844657
1.710;0.705025;-0.853609
1.720;0.718174;-0.862835
1.730;0.734475;-0.872427
1.740;0.752858;-0.882010
1.750;0.772113;-0.890941
1.760;0.791114;-0.898590
1.770;0.808964;-0.904579
1.780;0.825057;-0.908889
1.790;0.839086;-0.911838
1.800;0.851047;-0.913949
1.810;0.861219;-0.915772
1.820;0.870082;-0.917728
1.830;0.878186;-0.920037
1.840;0.886008;-0.922699
1.850;0.893878;-0.925523
1.860;0.901992;-0.928171
1.870;0.910492;-0.930206
1.880;0.919552;-0.931166
1.890;0.929408;-0.930650
1.900;0.940310;-0.928420
1.910;0.952399;-0.924484
1.920;0.965608;-0.919109
1.930;0.979629;-0.912722
1.940;0.993991;-0.905748
1.950;1.008177;-0.898444
1.960;1.021720;-0.890824
1.970;1.034243;-0.882687
1.980;1.045444;-0.873708
1.990;1.055092;-0.863539
2.000;1.063070;-0.851883
2.010;1.069459;-0.838562
2.020;1.074630;-0.823564
2.030;1.079241;-0.807069
2.040;1.084139;-0.789450
2.050;1.090153;-0.771264
2.060;1.097839;-0.753245
2.070;1.107266;-0.736286
2.080;1.117949;-0.721335
2.090;1.128974;-0.709203
2.100;1.139271;-0.700292
2.110;1.147904;-0.694411
2.120;1.154264;-0.690778
2.130;1.158095;-0.688231
2.140;1.159429;-0.685589
2.150;1.158493;-0.682000
2.160;1.155666;-0.677148
2.170;1.151448;-0.671255
2.180;1.146399;-0.664868
2.190;1.141045;-0.658571
2.200;1.135788;-0.652763
2.210;1.130896;-0.647603
2.220;1.126557;-0.643072
2.230;1.122955;-0.639085
2.240;1.120287;-0.635558
2.250;1.118703;-0.632427
2.260;1.118219;-0.629608
2.270;1.118674;-0.626952
2.280;1.119782;-0.624223
2.290;1.121249;-0.621123
2.300;1.122904;-0.617339
2.310;1.124748;-0.612597
2.320;1.126918;-0.606711
2.330;1.129578;-0.599659
2.340;1.132833;-0.591672
2.350;1.136672;-0.583281
2.360;1.140962;-0.575257
2.370;1.145460;-0.568425
2.380;1.149835;-0.563405
2.390;1.153698;-0.560376
2.400;1.156643;-0.558972
2.410;1.158318;-0.558385
2.420;1.158490;-0.557634
2.430;1.157098;-0.555901
2.440;1.154233;-0.552781
2.450;1.150074;-0.548386
2.460;1.144795;-0.543278
2.470;1.138512;-0.538261
2.480;1.131274;-0.534081
2.490;1.123085;-0.531129
2.500;1.113954;-0.529322
2.510;1.103940;-0.528210
2.520;1.093206;-0.527249
2.530;1.082046;-0.526061
2.540;1.070856;-0.524525
2.550;1.060054;-0.522721
2.560;1.049989;-0.520802
2.570;1.040884;-0.518900
2.580;1.032847;-0.517085
2.590;1.025921;-0.515372
2.600;1.020156;-0.513743
2.610;1.015640;-0.512187
2.620;1.012516;-0.510763
2.630;1.010972;-0.509640
2.640;1.011235;-0.509094
2.650;1.013550;-0.509436
2.660;1.018105;-0.510909
2.670;1.024918;-0.513600
2.680;1.033713;-0.517418
2.690;1.043873;-0.522124
2.700;1.054493;-0.527409
2.710;1.064574;-0.532958
2.720;1.073286;-0.538487
2.730;1.080232;-0.543767
2.740;1.085579;-0.548651
2.750;1.090017;-0.553110
2.760;1.094576;-0.557266
2.770;1.100365;-0.561392
2.780;1.108308;-0.565869
2.790;1.118929;-0.571116
2.800;1.132201;-0.577493
2.810;1.147526;-0.585223
2.820;1.163823;-0.594356
2.830;1.179763;-0.604763
2.840;1.194057;-0.616148
2.850;1.205747;-0.628065
2.860;1.214377;-0.639966
2.870;1.219992;-0.651311
2.880;1.222960;-0.661714
2.890;1.223738;-0.671056
2.900;1.222698;-0.679476
2.910;1.220075;-0.687256
2.920;1.215990;-0.694645
2.930;1.210523;-0.701727
2.940;1.203756;-0.708377
2.950;1.195812;-0.714307
2.960;1.186876;-0.719184
2.970;1.177219;-0.722781
2.980;1.167205;-0.725104
2.990;1.157288;-0.726429
3.000;1.147964;-0.727195
3.010;1.139719;-0.727813
3.020;1.132971;-0.728502
3.030;1.128034;-0.729238
3.040;1.125092;-0.729855
3.050;1.124184;-0.730222
3.060;1.125212;-0.730387
3.070;1.127971;-0.730639
3.080;1.132221;-0.731473
3.090;1.137749;-0.733484
3.100;1.144424;-0.737195
3.110;1.152182;-0.742867
3.120;1.160980;-0.750362
3.130;1.170736;-0.759148
3.140;1.181281;-0.768441
3.150;1.192357;-0.777420
3.160;1.203664;-0.785425
3.170;1.214954;-0.792081
3.180;1.226118;-0.797340
3.190;1.237188;-0.801462
3.200;1.248244;-0.804932
3.210;1.259264;-0.808330
3.220;1.270045;-0.812169
3.230;1.280253;-0.816757
3.240;1.289598;-0.822125
3.250;1.298029;-0.828047
3.260;1.305818;-0.834137
3.270;1.313488;-0.839974
3.280;1.321591;-0.845241
3.290;1.330462;-0.849818
3.300;1.340049;-0.853818
3.310;1.349893;-0.857545
3.320;1.359246;-0.861394
3.330;1.367282;-0.865751
3.340;1.373280;-0.870914
3.350;1.376726;-0.877016
3.360;1.377299;-0.883945
3.370;1.374805;-0.891321
3.380;1.369119;-0.898563
3.390;1.360170;-0.905086
3.400;1.347941;-0.910513
3.410;1.332485;-0.914811
3.420;1.313927;-0.918254
3.430;1.292507;-0.921232
3.440;1.268624;-0.924010
3.450;1.242893;-0.926579
3.460;1.216160;-0.928693
3.470;1.189449;-0.930047
3.480;1.163856;-0.930493
3.490;1.140406;-0.930170
3.500;1.119902;-0.929455
3.510;1.102826;-0.928805
3.520;1.089327;-0.928549
3.530;1.079318;-0.928790
3.540;1.072627;-0.929434
3.550;1.069140;-0.930313
3.560;1.068854;-0.931320
3.570;1.071829;-0.932508
3.580;1.078050;-0.934145
3.590;1.087298;-0.936683
3.600;1.099077;-0.940659
3.610;1.112665;-0.946521
3.620;1.127242;-0.954438
3.630;1.142034;-0.964176
3.640;1.156428;-0.975055
3.650;1.170027;-0.986044
3.660;1.182671;-0.995986
3.670;1.194412;-1.003915
3.680;1.205460;-1.009336
3.690;1.216078;-1.012355
3.700;1.226480;-1.013591
3.710;1.236763;-1.013929
3.720;1.246919;-1.014217
3.730;1.256898;-1.015055
3.740;1.266691;-1.016710
3.750;1.276399;-1.019137
3.760;1.286245;-1.022046
3.770;1.296526;-1.025010
3.780;1.307511;-1.027581
3.790;1.319327;-1.029403
3.800;1.331883;-1.030285
3.810;1.344835;-1.030220
3.820;1.357607;-1.029346
3.830;1.369480;-1.027878
3.840;1.379722;-1.026030
3.850;1.387778;-1.023965
3.860;1.393455;-1.021781
3.870;1.397061;-1.019524
3.880;1.399404;-1.017238
3.890;1.401631;-1.015031
3.900;1.404914;-1.013111
3.910;1.410096;-1.011749
3.920;1.417420;-1.011161
3.930;1.426427;-1.011372
3.940;1.436073;-1.012179
3.950;1.445011;-1.013241
3.960;1.451941;-1.014251
3.970;1.455892;-1.015073
3.980;1.456382;-1.015750
3.990;1.453422;-1.016418
4.000;1.447428;-1.017188
4.010;1.439088;-1.018081
4.020;1.429210;-1.019046
4.030;1.418557;-1.020011
4.040;1.407694;-1.020879
4.050;1.396898;-1.021476
4.060;1.386187;-1.021489
4.070;1.375485;-1.020513
4.080;1.364834;-1.018197
4.090;1.354559;-1.014420
4.100;1.345279;-1.009372
4.110;1.337778;-1.003489
4.120;1.332796;-0.997299
4.130;1.330826;-0.991266
4.140;1.331993;-0.985709
4.150;1.336032;-0.980794
4.160;1.342358;-0.976546
4.170;1.350185;-0.972890
4.180;1.358656;-0.969691
4.190;1.366959;-0.966822
4.200;1.374418;-0.964220
4.210;1.380568;-0.961901
4.220;1.385194;-0.959918
4.230;1.388316;-0.958283
4.240;1.390108;-0.956920
4.250;1.390750;-0.955676
4.260;1.390301;-0.954395
4.270;1.388663;-0.953022
4.280;1.385687;-0.951667
4.290;1.381352;-0.950583
4.300;1.375914;-0.950046
4.310;1.369922;-0.950203
4.320;1.364094;-0.950996
4.330;1.359124;-0.952217
4.340;1.355499;-0.953601
4.350;1.353411;-0.954885
4.360;1.352758;-0.955822
4.370;1.353232;-0.956178
4.380;1.354449;-0.955761
4.390;1.356067;-0.954461
4.400;1.357817;-0.952286
4.410;1.359437;-0.949382
4.420;1.360544;-0.946023
4.430;1.360573;-0.942574
4.440;1.358863;-0.939424
4.450;1.354882;-0.936928
4.460;1.348467;-0.935390
4.470;1.339931;-0.935064
4.480;1.329964;-0.936174
4.490;1.319346;-0.938898
4.500;1.308604;-0.943319
4.510;1.297764;-0.949370
4.520;1.286350;-0.956813
4.530;1.273623;-0.965254
4.540;1.258961;-0.974166
4.550;1.242160;-0.982887
4.560;1.223537;-0.990643
4.570;1.203816;-0.996636
4.580;1.183942;-1.000230
4.590;1.164905;-1.001138
4.600;1.147622;-0.999518
4.610;1.132848;-0.995917
4.620;1.121085;-0.991082
4.630;1.112521;-0.985757
4.640;1.107029;-0.980537
4.650;1.104252;-0.975833
4.660;1.103763;-0.971942
4.670;1.105217;-0.969140
4.680;1.108427;-0.967730
4.690;1.113313;-0.967964
4.700;1.119777;-0.969893
4.710;1.127598;-0.973265
4.720;1.136406;-0.977535
4.730;1.145745;-0.981987
4.740;1.155164;-0.985891
4.750;1.164311;-0.988657
4.760;1.172991;-0.989974
4.770;1.181178;-0.989873
4.780;1.188988;-0.988695
4.790;1.196615;-0.986968
4.800;1.204234;-0.985221
4.810;1.211918;-0.983777
4.820;1.219589;-0.982611
4.830;1.227067;-0.981348
4.840;1.234177;-0.979420
4.850;1.240880;-0.976311
4.860;1.247323;-0.971779
4.870;1.253782;-0.965955
4.880;1.260528;-0.959291
4.890;1.267683;-0.952378
4.900;1.275130;-0.945733
4.910;1.282494;-0.939666
4.920;1.289163;-0.934296
4.930;1.294362;-0.929680
4.940;1.297262;-0.925932
4.950;1.297111;-0.923236
4.960;1.293357;-0.921701
4.970;1.285765;-0.921132
4.980;1.274507;-0.920868
4.990;1.260196;-0.919808
5.000;1.243819;-0.916681
5.010;1.226552;-0.910452
5.020;1.209503;-0.900699
5.030;1.193463;-0.887800
5.040;1.178776;-0.872874
5.050;1.165374;-0.857506
5.060;1.152948;-0.843329
5.070;1.141137;-0.831593
5.080;1.129651;-0.822850
5.090;1.118287;-0.816851
5.100;1.106919;-0.812700
5.110;1.095477;-0.809185
5.120;1.083961;-0.805150
5.130;1.072477;-0.799788
5.140;1.061270;-0.792759
5.150;1.050735;-0.784174
5.160;1.041368;-0.774488
5.170;1.033675;-0.764379
5.180;1.028063;-0.754600
5.190;1.024751;-0.745829
5.200;1.023726;-0.738521
5.210;1.024740;-0.732847
5.220;1.027349;-0.728705
5.230;1.031005;-0.725848
5.240;1.035157;-0.724034
5.250;1.039368;-0.723156
5.260;1.043378;-0.723276
5.270;1.047099;-0.724541
5.280;1.050516;-0.727071
5.290;1.053548;-0.730857
5.300;1.055977;-0.735718
5.310;1.057485;-0.741295
5.320;1.057805;-0.747100
5.330;1.056884;-0.752594
5.340;1.054970;-0.757276
5.350;1.052587;-0.760762
5.360;1.050425;-0.762822
5.370;1.049204;-0.763407
5.380;1.049551;-0.762662
5.390;1.051910;-0.760913
5.400;1.056470;-0.758591
5.410;1.063114;-0.756111
5.420;1.071425;-0.753755
5.430;1.080754;-0.751631
5.440;1.090362;-0.749730
5.450;1.099562;-0.748020
5.460;1.107830;-0.746512
5.470;1.114855;-0.745250
5.480;1.120516;-0.744266
5.490;1.124836;-0.743566
5.500;1.127916;-0.743166
5.510;1.129892;-0.743156
5.520;1.130920;-0.743747
5.530;1.131187;-0.745241
5.540;1.130934;-0.747908
5.550;1.130442;-0.751824
5.560;1.130013;-0.756762
5.570;1.129921;-0.762220
5.580;1.130371;-0.767601
5.590;1.131481;-0.772448
5.600;1.133283;-0.776610
5.610;1.135759;-0.780272
5.620;1.138869;-0.783859
5.630;1.142569;-0.787866
5.640;1.146814;-0.792673
5.650;1.151557;-0.798397
5.660;1.156759;-0.804836
5.670;1.162385;-0.811542
5.680;1.168401;-0.818002
5.690;1.174760;-0.823836
5.700;1.181390;-0.828900
5.710;1.188207;-0.833291
5.720;1.195140;-0.837254
5.730;1.202170;-0.841069
5.740;1.209327;-0.844916
5.750;1.216654;-0.848781
5.760;1.224147;-0.852441
5.770;1.231710;-0.855556
5.780;1.239163;-0.857829
5.790;1.246273;-0.859155
5.800;1.252787;-0.859709
5.810;1.258437;-0.859917
5.820;1.262925;-0.860319
5.830;1.265915;-0.861358
5.840;1.267091;-0.863195
5.850;1.266265;-0.865621
5.860;1.263499;-0.868138
5.870;1.259153;-0.870138
5.880;1.253839;-0.871123
5.890;1.248295;-0.870848
5.900;1.243234;-0.869367
5.910;1.239220;-0.866979
5.920;1.236604;-0.864141
5.930;1.235523;-0.861349
5.940;1.235953;-0.859002
5.950;1.237769;-0.857272
5.960;1.240774;-0.856046
5.970;1.244712;-0.854997
5.980;1.249252;-0.853760
5.990;1.254007;-0.852150
6.000;1.258559;-0.850290
6.010;1.262521;-0.848589
6.020;1.265581;-0.847560
6.030;1.267523;-0.847556
6.040;1.268234;-0.848567
6.050;1.267714;-0.850185
6.060;1.266088;-0.851768
6.070;1.263595;-0.852713
6.080;1.260558;-0.852719
6.090;1.257337;-0.851918
6.100;1.254289;-0.850786
6.110;1.251723;-0.849883
6.120;1.249838;-0.849541
6.130;1.248694;-0.849658
6.140;1.248227;-0.849705
6.150;1.248320;-0.848948
6.160;1.248885;-0.846754
6.170;1.249895;-0.842837
6.180;1.251369;-0.837363
6.190;1.253307;-0.830903
6.200;1.255634;-0.824301
6.210;1.258151;-0.818488
6.220;1.260505;-0.814264
6.230;1.262182;-0.812080
6.240;1.262555;-0.811907
6.250;1.261013;-0.813251
6.260;1.257115;-0.815285
6.270;1.250739;-0.817052
6.280;1.242136;-0.817648
6.290;1.231866;-0.816362
6.300;1.220638;-0.812790
6.310;1.209124;-0.806907
6.320;1.197821;-0.799092
6.330;1.187013;-0.790072
6.340;1.176810;-0.780754
6.350;1.167176;-0.771991
6.360;1.157904;-0.764326
6.370;1.148586;-0.757839
6.380;1.138642;-0.752132
6.390;1.127440;-0.746487
6.400;1.114495;-0.740154
6.410;1.099651;-0.732645
6.420;1.083190;-0.723948
6.430;1.065852;-0.714549
6.440;1.048751;-0.705272
6.450;1.033205;-0.696991
6.460;1.020501;-0.690355
6.470;1.011630;-0.685601
6.480;1.007054;-0.682525
6.490;1.006589;-0.680582
6.500;1.009454;-0.679085
6.510;1.014493;-0.677435
6.520;1.020506;-0.675303
6.530;1.026562;-0.672709
6.540;1.032204;-0.669984
6.550;1.037473;-0.667647
6.560;1.042762;-0.666252
6.570;1.048577;-0.666228
6.580;1.055309;-0.667752
6.590;1.063076;-0.670682
6.600;1.071660;-0.674569
6.610;1.080543;-0.678778
6.620;1.089032;-0.682688
6.630;1.096454;-0.685907
6.640;1.102362;-0.688409
6.650;1.106673;-0.690541
6.660;1.109652;-0.692897
6.670;1.111778;-0.696089
6.680;1.113553;-0.700492
6.690;1.115312;-0.706058
6.700;1.117101;-0.712289
6.710;1.118620;-0.718395
6.720;1.119284;-0.723602
6.730;1.118396;-0.727473
6.740;1.115402;-0.730092
6.750;1.110149;-0.732024
6.760;1.103020;-0.734039
6.770;1.094883;-0.736782
6.780;1.086855;-0.740565
6.790;1.079975;-0.745374
6.800;1.074926;-0.751032
6.810;1.071913;-0.757358
6.820;1.070731;-0.764222
6.830;1.070948;-0.771525
6.840;1.072105;-0.779154
6.850;1.073813;-0.786960
6.860;1.075747;-0.794767
6.870;1.077577;-0.802378
6.880;1.078924;-0.809588
6.890;1.079392;-0.816178
6.900;1.078646;-0.821932
6.910;1.076477;-0.826678
6.920;1.072850;-0.830356
6.930;1.067944;-0.833067
6.940;1.062181;-0.835078
6.950;1.056203;-0.836764
6.960;1.050751;-0.838512
6.970;1.046479;-0.840600
6.980;1.043788;-0.843092
6.990;1.042748;-0.845816
7.000;1.043145;-0.848431
7.010;1.044587;-0.850563
7.020;1.046600;-0.851963
7.030;1.048684;-0.852596
7.040;1.050325;-0.852637
7.050;1.051021;-0.852371
7.060;1.050339;-0.852058
7.070;1.048017;-0.851825
7.080;1.044046;-0.851617
7.090;1.038712;-0.851223
7.100;1.032519;-0.850343
7.110;1.026017;-0.848699
7.120;1.019583;-0.846146
7.130;1.013276;-0.842747
7.140;1.006854;-0.838753
7.150;0.999946;-0.834495
7.160;0.992301;-0.830230
7.170;0.983975;-0.826034
7.180;0.975374;-0.821804
7.190;0.967137;-0.817368
7.200;0.959914;-0.812648
7.210;0.954105;-0.807778
7.220;0.949673;-0.803102
7.230;0.946111;-0.799048
7.240;0.942593;-0.795916
7.250;0.938257;-0.793713
7.260;0.932504;-0.792112
7.270;0.925183;-0.790565
7.280;0.916625;-0.788517
7.290;0.907528;-0.785622
7.300;0.898782;-0.781875
7.310;0.891271;-0.777613
7.320;0.885745;-0.773359
7.330;0.882754;-0.769584
7.340;0.882631;-0.766484
7.350;0.885490;-0.763917
7.360;0.891204;-0.761543
7.370;0.899397;-0.759099
7.380;0.909504;-0.756603
7.390;0.920889;-0.754354
7.400;0.932988;-0.752712
7.410;0.945413;-0.751844
7.420;0.957961;-0.751613
7.430;0.970541;-0.751676
7.440;0.983076;-0.751687
7.450;0.995429;-0.751475
7.460;1.007411;-0.751126
7.470;1.018865;-0.750932
7.480;1.029782;-0.751260
7.490;1.040377;-0.752396
7.500;1.051019;-0.754445
7.510;1.062058;-0.757337
7.520;1.073641;-0.760903
7.530;1.085643;-0.764975
7.540;1.097733;-0.769465
7.550;1.109508;-0.774395
7.560;1.120626;-0.779881
7.570;1.130882;-0.786068
7.580;1.140235;-0.793038
7.590;1.148789;-0.800715
7.600;1.156739;-0.808810
7.610;1.164295;-0.816856
7.620;1.171618;-0.824322
7.630;1.178784;-0.830762
7.640;1.185817;-0.835968
7.650;1.192768;-0.840035
7.660;1.199771;-0.843314
7.670;1.207019;-0.846254
7.680;1.214658;-0.849206
7.690;1.222645;-0.852284
7.700;1.230700;-0.855327
7.710;1.238382;-0.857989
7.720;1.245287;-0.859894
7.730;1.251227;-0.860808
7.740;1.256298;-0.860750
7.750;1.260807;-0.860008
7.760;1.265109;-0.859021
7.770;1.269413;-0.858222
7.780;1.273681;-0.857884
7.790;1.277673;-0.858053
7.800;1.281108;-0.858548
7.810;1.283870;-0.859012
7.820;1.286115;-0.858999
7.830;1.288270;-0.858103
7.840;1.290902;-0.856104
7.850;1.294532;-0.853080
7.860;1.299430;-0.849411
7.870;1.305482;-0.845647
7.880;1.312176;-0.842278
7.890;1.318735;-0.839519
7.900;1.324331;-0.837231
7.910;1.328289;-0.835043
7.920;1.330190;-0.832583
7.930;1.329864;-0.829681
7.940;1.327293;-0.826409
7.950;1.322511;-0.822957
7.960;1.315548;-0.819469
7.970;1.306446;-0.815967
7.980;1.295336;-0.812393
