Time[s];COPx[cm];COPy[cm]
0.010;2.686643;0.166272
0.020;2.689004;0.162201
0.030;2.692139;0.159222
0.040;2.696587;0.158114
0.050;2.702536;0.159193
0.060;2.709835;0.162244
0.070;2.718104;0.166593
0.080;2.726859;0.171341
0.090;2.735589;0.175646
0.100;2.743815;0.178943
0.110;2.751166;0.181051
0.120;2.757452;0.182145
0.130;2.762714;0.182638
0.140;2.767186;0.182985
0.150;2.771187;0.183461
0.160;2.774979;0.184007
0.170;2.778625;0.184204
0.180;2.781920;0.183425
0.190;2.784416;0.181085
0.200;2.785581;0.176849
0.210;2.785010;0.170701
0.220;2.782637;0.162827
0.230;2.778840;0.153419
0.240;2.774400;0.142513
0.250;2.770300;0.129982
0.260;2.767451;0.115668
0.270;2.766423;0.099558
0.280;2.767262;0.081892
0.290;2.769452;0.063120
0.300;2.772036;0.043768
0.310;2.773893;0.024287
0.320;2.774096;0.004975
0.330;2.772223;-0.014031
0.340;2.768492;-0.032711
0.350;2.763674;-0.051104
0.360;2.758823;-0.069272
0.370;2.754927;-0.087293
0.380;2.752620;-0.105256
0.390;2.752023;-0.123228
0.400;2.752777;-0.141199
0.410;2.754198;-0.159054
0.420;2.755529;-0.176601
0.430;2.756157;-0.193658
0.440;2.755754;-0.210145
0.450;2.754286;-0.226121
0.460;2.751944;-0.241725
0.470;2.749017;-0.257046
0.480;2.745803;-0.271984
0.490;2.742560;-0.286173
0.500;2.739521;-0.299017
0.510;2.736908;-0.309831
0.520;2.734954;-0.318022
0.530;2.733913;-0.323231
0.540;2.734090;-0.325368
0.550;2.735877;-0.324554
0.560;2.739770;-0.321031
0.570;2.746294;-0.315102
0.580;2.755858;-0.307148
0.590;2.768570;-0.297643
0.600;2.784128;-0.287118
0.610;2.801827;-0.276064
0.620;2.820697;-0.264845
0.630;2.839724;-0.253653
0.640;2.858057;-0.242533
0.650;2.875132;-0.231453
0.660;2.890673;-0.220396
0.670;2.904604;-0.209450
0.680;2.916954;-0.198823
0.690;2.927787;-0.188779
0.700;2.937181;-0.179496
0.710;2.945229;-0.170957
0.720;2.952057;-0.162925
0.730;2.957836;-0.155006
0.740;2.962767;-0.146766
0.750;2.967067;-0.137832
0.760;2.970943;-0.127940
0.770;2.974581;-0.116953
0.780;2.978127;-0.104841
0.790;2.981677;-0.091689
0.800;2.985292;-0.077718
0.810;2.989022;-0.063307
0.820;2.992946;-0.048947
0.830;2.997179;-0.035135
0.840;3.001838;-0.022261
0.850;3.006960;-0.010572
0.860;3.012410;-0.000238
0.870;3.017837;0.008573
0.880;3.022721;0.015666
0.890;3.026503;0.020889
0.900;3.028725;0.024222
0.910;3.029118;0.025860
0.920;3.027628;0.026232
0.930;3.024393;0.025940
0.940;3.019692;0.025630
0.950;3.013881;0.025825
0.960;3.007314;0.026784
0.970;3.000307;0.028417
0.980;2.993115;0.030286
0.990;2.985914;0.031692
1.000;2.978760;0.031853
1.010;2.971539;0.030127
1.020;2.963968;0.026233
1.030;2.955685;0.020376
1.040;2.946439;0.013225
1.050;2.936274;0.005733
1.060;2.925615;-0.001169
1.070;2.915200;-0.006887
1.080;2.905867;-0.011369
1.090;2.898290;-0.015082
1.100;2.892749;-0.018759
1.110;2.889037;-0.023042
1.120;2.886536;-0.028186
1.130;2.884430;-0.033995
1.140;2.881973;-0.040012
1.150;2.878692;-0.045855
1.160;2.874486;-0.051497
1.170;2.869590;-0.057316
1.180;2.864466;-0.063900
1.190;2.859639;-0.071730
1.200;2.855554;-0.080941
1.210;2.852458;-0.091281
1.220;2.850329;-0.102241
1.230;2.848848;-0.113256
1.240;2.847432;-0.123866
1.250;2.845313;-0.133822
1.260;2.841691;-0.143103
1.270;2.835914;-0.151879
1.280;2.827678;-0.160421
1.290;2.817164;-0.169027
1.300;2.805047;-0.177959
1.310;2.792332;-0.187410
1.320;2.780072;-0.197482
1.330;2.769086;-0.208155
1.340;2.759795;-0.219286
1.350;2.752181;-0.230623
1.360;2.745829;-0.241862
1.370;2.739986;-0.252716
1.380;2.733638;-0.262956
1.390;2.725623;-0.272393
1.400;2.714840;-0.280832
1.410;2.700519;-0.288064
1.420;2.682470;-0.293945
1.430;2.661183;-0.298521
1.440;2.637712;-0.302099
1.450;2.613368;-0.305195
1.460;2.589357;-0.308367
1.470;2.566515;-0.312032
1.480;2.545251;-0.316371
1.490;2.525639;-0.321346
1.500;2.507599;-0.326799
1.510;2.491008;-0.332564
1.520;2.475736;-0.338513
1.530;2.461589;-0.344536
1.540;2.448237;-0.350487
1.550;2.435221;-0.356165
1.560;2.422057;-0.361360
1.570;2.408405;-0.365942
1.580;2.394237;-0.369922
1.590;2.379887;-0.373447
1.600;2.365964;-0.376730
1.610;2.353151;-0.379939
1.620;2.341960;-0.383095
1.630;2.332575;-0.386029
1.640;2.324816;-0.388434
1.650;2.318232;-0.389982
1.660;2.312257;-0.390470
1.670;2.306380;-0.389919
1.680;2.300276;-0.388568
1.690;2.293864;-0.386779
1.700;2.287274;-0.384872
1.710;2.280722;-0.382978
1.720;2.274377;-0.380970
1.730;2.268281;-0.378539
1.740;2.262376;-0.375383
1.750;2.256634;-0.371384
1.760;2.251198;-0.366643
1.770;2.246430;-0.361350
1.780;2.242818;-0.355610
1.790;2.240774;-0.349332
1.800;2.240449;-0.342267
1.810;2.241620;-0.334116
1.820;2.243728;-0.324656
1.830;2.246031;-0.313800
1.840;2.247841;-0.301624
1.850;2.248737;-0.288337
1.860;2.248671;-0.274227
1.870;2.247910;-0.259577
1.880;2.246858;-0.244592
1.890;2.245853;-0.229360
1.900;2.245031;-0.213878
1.910;2.244315;-0.198114
1.920;2.243497;-0.182070
1.930;2.242366;-0.165811
1.940;2.240788;-0.149425
1.950;2.238717;-0.132963
1.960;2.236139;-0.116377
1.970;2.233023;-0.099519
1.980;2.229338;-0.082216
1.990;2.225119;-0.064391
2.000;2.220541;-0.046169
2.010;2.215955;-0.027915
2.020;2.211838;-0.010162
2.030;2.208674;0.006501
2.040;2.206806;0.021548
2.050;2.206324;0.034584
2.060;2.207038;0.045381
2.070;2.208559;0.053894
2.080;2.210474;0.060260
2.090;2.212525;0.064797
2.100;2.214747;0.067949
2.110;2.217499;0.070202
2.120;2.221370;0.071959
2.130;2.226987;0.073449
2.140;2.234784;0.074735
2.150;2.244832;0.075798
2.160;2.256789;0.076659
2.170;2.270016;0.077420
2.180;2.283784;0.078245
2.190;2.297492;0.079291
2.200;2.310793;0.080657
2.210;2.323610;0.082354
2.220;2.336085;0.084311
2.230;2.348512;0.086403
2.240;2.361293;0.088510
2.250;2.374901;0.090589
2.260;2.389826;0.092699
2.270;2.406512;0.094969
2.280;2.425264;0.097513
2.290;2.446170;0.100352
2.300;2.469025;0.103393
2.310;2.493326;0.106479
2.320;2.518368;0.109477
2.330;2.543434;0.112376
2.340;2.568006;0.115344
2.350;2.591909;0.118696
2.360;2.615321;0.122774
2.370;2.638669;0.127781
2.380;2.662454;0.133642
2.390;2.687113;0.139967
2.400;2.712931;0.146138
2.410;2.740050;0.151487
2.420;2.768498;0.155505
2.430;2.798203;0.158002
2.440;2.828978;0.159152
2.450;2.860475;0.159430
2.460;2.892201;0.159461
2.470;2.923599;0.159855
2.480;2.954179;0.161050
2.490;2.983656;0.163201
2.500;3.012006;0.166141
2.510;3.039437;0.169465
2.520;3.066268;0.172699
2.530;3.092784;0.175500
2.540;3.119142;0.177786
2.550;3.145345;0.179752
2.560;3.171261;0.181774
2.570;3.196637;0.184263
2.580;3.221107;0.187527
2.590;3.244198;0.191689
2.600;3.265340;0.196672
2.610;3.283929;0.202205
2.620;3.299433;0.207847
2.630;3.311532;0.213012
2.640;3.320222;0.217049
2.650;3.325831;0.219385
2.660;3.328921;0.219700
2.670;3.330155;0.218037
2.680;3.330189;0.214789
2.690;3.329609;0.210572
2.700;3.328894;0.206046
2.710;3.328361;0.201755
2.720;3.328087;0.198024
2.730;3.327887;0.194933
2.740;3.327374;0.192347
2.750;3.326124;0.189982
2.760;3.323857;0.187483
2.770;3.320576;0.184499
2.780;3.316592;0.180758
2.790;3.312441;0.176136
2.800;3.308737;0.170711
2.810;3.306014;0.164773
2.820;3.304594;0.158776
2.830;3.304524;0.153221
2.840;3.305567;0.148471
2.850;3.307256;0.144580
2.860;3.309005;0.141209
2.870;3.310247;0.137705
2.880;3.310541;0.133309
2.890;3.309616;0.127439
2.900;3.307355;0.119901
2.910;3.303769;0.110934
2.920;3.298971;0.101065
2.930;3.293144;0.090883
2.940;3.286473;0.080825
2.950;3.279047;0.071069
2.960;3.270790;0.061525
2.970;3.261445;0.051938
2.980;3.250642;0.042050
2.990;3.238022;0.031742
3.000;3.223355;0.021078
3.010;3.206629;0.010235
3.020;3.188078;-0.000634
3.030;3.168151;-0.011506
3.040;3.147455;-0.022512
3.050;3.126658;-0.033857
3.060;3.106361;-0.045707
3.070;3.086965;-0.058117
3.080;3.068540;-0.071017
3.090;3.050762;-0.084227
3.100;3.032954;-0.097453
3.110;3.014245;-0.110259
3.120;2.993820;-0.122085
3.130;2.971171;-0.132340
3.140;2.946259;-0.140564
3.150;2.919549;-0.146592
3.160;2.891889;-0.150630
3.170;2.864329;-0.153224
3.180;2.837919;-0.155121
3.190;2.813557;-0.157081
3.200;2.791905;-0.159709
3.210;2.773351;-0.163354
3.220;2.757987;-0.168092
3.230;2.745586;-0.173788
3.240;2.735577;-0.180187
3.250;2.727086;-0.186975
3.260;2.719080;-0.193824
3.270;2.710603;-0.200417
3.280;2.701017;-0.206473
3.290;2.690110;-0.211750
3.300;2.678050;-0.216078
3.310;2.665239;-0.219416
3.320;2.652147;-0.221907
3.330;2.639203;-0.223880
3.340;2.626738;-0.225763
3.350;2.614988;-0.227974
3.360;2.604141;-0.230825
3.370;2.594371;-0.234475
3.380;2.585854;-0.238927
3.390;2.578743;-0.244009
3.400;2.573137;-0.249369
3.410;2.569084;-0.254496
3.420;2.566592;-0.258833
3.430;2.565632;-0.261935
3.440;2.566139;-0.263614
3.450;2.568004;-0.263976
3.460;2.571080;-0.263322
3.470;2.575200;-0.261962
3.480;2.580189;-0.260057
3.490;2.585875;-0.257583
3.500;2.592097;-0.254415
3.510;2.598731;-0.250463
3.520;2.605730;-0.245781
3.530;2.613151;-0.240572
3.540;2.621145;-0.235106
3.550;2.629889;-0.229616
3.560;2.639459;-0.224219
3.570;2.649732;-0.218896
3.580;2.660382;-0.213521
3.590;2.670982;-0.207935
3.600;2.681183;-0.202023
3.610;2.690842;-0.195768
3.620;2.700034;-0.189212
3.630;2.708943;-0.182359
3.640;2.717701;-0.175094
3.650;2.726281;-0.167179
3.660;2.734485;-0.158383
3.670;2.742033;-0.148659
3.680;2.748675;-0.138264
3.690;2.754264;-0.127690
3.700;2.758750;-0.117446
3.710;2.762136;-0.107790
3.720;2.764429;-0.098598
3.730;2.765626;-0.089440
3.740;2.765733;-0.079823
3.750;2.764806;-0.069455
3.760;2.762993;-0.058388
3.770;2.760559;-0.046961
3.780;2.757874;-0.035634
3.790;2.755354;-0.024793
3.800;2.753365;-0.014653
3.810;2.752107;-0.005255
3.820;2.751528;0.003493
3.830;2.751335;0.011771
3.840;2.751100;0.019822
3.850;2.750437;0.027914
3.860;2.749172;0.036286
3.870;2.747452;0.045075
3.880;2.745743;0.054265
3.890;2.744717;0.063665
3.900;2.745066;0.072940
3.910;2.747286;0.081717
3.920;2.751516;0.089730
3.930;2.757484;0.096918
3.940;2.764599;0.103412
3.950;2.772178;0.109413
3.960;2.779738;0.115028
3.970;2.787222;0.120177
3.980;2.795041;0.124612
3.990;2.803895;0.128047
4.000;2.814450;0.130313
4.010;2.827025;0.131485
4.020;2.841436;0.131885
4.030;2.857030;0.131977
4.040;2.872896;0.132208
4.050;2.888128;0.132887
4.060;2.902052;0.134152
4.070;2.914347;0.135984
4.080;2.925033;0.138255
4.090;2.934353;0.140768
4.100;2.942621;0.143296
4.110;2.950106;0.145612
4.120;2.956970;0.147521
4.130;2.963283;0.148892
4.140;2.969072;0.149665
4.150;2.974379;0.149852
4.160;2.979252;0.149536
4.170;2.983680;0.148882
4.180;2.987507;0.148123
4.190;2.990431;0.147511
4.200;2.992132;0.147223
4.210;2.992473;0.147288
4.220;2.991679;0.147563
4.230;2.990356;0.147765
4.240;2.989346;0.147563
4.250;2.989435;0.146706
4.260;2.991064;0.145138
4.270;2.994140;0.143021
4.280;2.998038;0.140664
4.290;3.001776;0.138366
4.300;3.004303;0.136289
4.310;3.004789;0.134412
4.320;3.002809;0.132568
4.330;2.998372;0.130506
4.340;2.991811;0.127940
4.350;2.983603;0.124590
4.360;2.974203;0.120255
4.370;2.963963;0.114920
4.380;2.953146;0.108822
4.390;2.942011;0.102423
4.400;2.930910;0.096293
4.410;2.920310;0.090937
4.420;2.910740;0.086656
4.430;2.902665;0.083471
4.440;2.896338;0.081132
4.450;2.891693;0.079197
4.460;2.888337;0.077166
4.470;2.885648;0.074616
4.480;2.882943;0.071319
4.490;2.879662;0.067283
4.500;2.875480;0.062708
4.510;2.870326;0.057865
4.520;2.864337;0.052971
4.530;2.857766;0.048097
4.540;2.850887;0.043158
4.550;2.843907;0.037964
4.560;2.836906;0.032303
4.570;2.829837;0.026018
4.580;2.822603;0.019042
4.590;2.815179;0.011373
4.600;2.807722;0.003009
4.610;2.800582;-0.006104
4.620;2.794184;-0.016065
4.630;2.788825;-0.026934
4.640;2.784497;-0.038614
4.650;2.780826;-0.050775
4.660;2.777187;-0.062855
4.670;2.772944;-0.074166
4.680;2.767689;-0.084063
4.690;2.761386;-0.092120
4.700;2.754329;-0.098254
4.710;2.746960;-0.102740
4.720;2.739673;-0.106111
4.730;2.732706;-0.108967
4.740;2.726183;-0.111786
4.750;2.720232;-0.114789
4.760;2.715093;-0.117904
4.770;2.711124;-0.120822
4.780;2.708695;-0.123107
4.790;2.708019;-0.124310
4.800;2.709052;-0.124072
4.810;2.711519;-0.122217
4.820;2.715062;-0.118827
4.830;2.719395;-0.114273
4.840;2.724383;-0.109177
4.850;2.730019;-0.104292
4.860;2.736325;-0.100341
4.870;2.743272;-0.097845
4.880;2.750727;-0.096993
4.890;2.758456;-0.097579
4.900;2.766162;-0.099018
4.910;2.773560;-0.100441
4.920;2.780453;-0.100831
4.930;2.786803;-0.099217
4.940;2.792770;-0.094897
4.950;2.798717;-0.087639
4.960;2.805159;-0.077771
4.970;2.812642;-0.066085
4.980;2.821602;-0.053570
4.990;2.832259;-0.041114
5.000;2.844587;-0.029293
5.010;2.858340;-0.018345
5.020;2.873103;-0.008267
5.030;2.888347;0.001062
5.040;2.903495;0.009789
5.050;2.917974;0.018067
5.060;2.931269;0.026067
5.070;2.942957;0.034003
5.080;2.952747;0.042130
5.090;2.960522;0.050709
5.100;2.966378;0.059957
5.110;2.970636;0.069968
5.120;2.973822;0.080640
5.130;2.976583;0.091654
5.140;2.979573;0.102532
5.150;2.983316;0.112805
5.160;2.988106;0.122201
5.170;2.993964;0.130740
5.180;3.000662;0.138677
5.190;3.007788;0.146306
5.200;3.014858;0.153772
5.210;3.021462;0.160991
5.220;3.027413;0.167714
5.230;3.032841;0.173666
5.240;3.038173;0.178684
5.250;3.043986;0.182799
5.260;3.050816;0.186251
5.270;3.058979;0.189456
5.280;3.068501;0.192919
5.290;3.079141;0.197096
5.300;3.090509;0.202218
5.310;3.102197;0.208147
5.320;3.113881;0.214352
5.330;3.125337;0.220061
5.340;3.136370;0.224563
5.350;3.146719;0.227512
5.360;3.156033;0.229067
5.370;3.163961;0.229777
5.380;3.170309;0.230302
5.390;3.175164;0.231138
5.400;3.178905;0.232465
5.410;3.182073;0.234159
5.420;3.185172;0.235906
5.430;3.188495;0.237359
5.440;3.192046;0.238264
5.450;3.195598;0.238507
5.460;3.198824;0.238076
5.470;3.201442;0.236964
5.480;3.203287;0.235114
5.490;3.204307;0.232440
5.500;3.204492;0.228898
5.510;3.203812;0.224559
5.520;3.202190;0.219608
5.530;3.199546;0.214269
5.540;3.195881;0.208704
5.550;3.191352;0.202961
5.560;3.186249;0.197027
5.570;3.180854;0.190956
5.580;3.175253;0.184948
5.590;3.169196;0.179300
5.600;3.162086;0.174224
5.610;3.153142;0.169641
5.620;3.141678;0.165097
5.630;3.127379;0.159875
5.640;3.110445;0.153266
5.650;3.091514;0.144846
5.660;3.071421;0.134644
5.670;3.050920;0.123105
5.680;3.030486;0.110877
5.690;3.010285;0.098553
5.700;2.990266;0.086469
5.710;2.970292;0.074675
5.720;2.950239;0.063037
5.730;2.930035;0.051400
5.740;2.909640;0.039710
5.750;2.889029;0.028046
5.760;2.868188;0.016561
5.770;2.847145;0.005402
5.780;2.825978;-0.005348
5.790;2.804794;-0.015694
5.800;2.783663;-0.025714
5.810;2.762558;-0.035525
5.820;2.741329;-0.045222
5.830;2.719754;-0.054818
5.840;2.697656;-0.064198
5.850;2.675054;-0.073116
5.860;2.652248;-0.081274
5.870;2.629805;-0.088448
5.880;2.608408;-0.094616
5.890;2.588648;-0.100007
5.900;2.570843;-0.105031
5.910;2.554976;-0.110115
5.920;2.540741;-0.115533
5.930;2.527683;-0.121321
5.940;2.515335;-0.127300
5.950;2.503335;-0.133181
5.960;2.491456;-0.138677
5.970;2.479564;-0.143565
5.980;2.467554;-0.147698
5.990;2.455319;-0.150992
6.000;2.442805;-0.153416
6.010;2.430109;-0.154998
6.020;2.417539;-0.155813
6.030;2.405575;-0.155950
6.040;2.394715;-0.155486
6.050;2.385302;-0.154479
6.060;2.377412;-0.152988
6.070;2.370839;-0.151105
6.080;2.365171;-0.148967
6.090;2.359877;-0.146739
6.100;2.354425;-0.144593
6.110;2.348408;-0.142698
6.120;2.341683;-0.141204
6.130;2.334458;-0.140206
6.140;2.327285;-0.139674
6.150;2.320938;-0.139399
6.160;2.316215;-0.139000
6.170;2.313705;-0.138008
6.180;2.313595;-0.136010
6.190;2.315607;-0.132770
6.200;2.319091;-0.128284
6.210;2.323226;-0.122753
6.220;2.327260;-0.116525
6.230;2.330693;-0.110040
6.240;2.333357;-0.103753
6.250;2.335411;-0.098011
6.260;2.337243;-0.092945
6.270;2.339334;-0.088425
6.280;2.342091;-0.084116
6.290;2.345699;-0.079628
6.300;2.350043;-0.074679
6.310;2.354732;-0.069199
6.320;2.359238;-0.063343
6.330;2.363110;-0.057408
6.340;2.366147;-0.051709
6.350;2.368471;-0.046439
6.360;2.370474;-0.041583
6.370;2.372704;-0.036908
6.380;2.375730;-0.032027
6.390;2.380040;-0.026529
6.400;2.385958;-0.020101
6.410;2.393613;-0.012613
6.420;2.402944;-0.004125
6.430;2.413751;0.005203
6.440;2.425770;0.015219
6.450;2.438720;0.025845
6.460;2.452326;0.037061
6.470;2.466306;0.048857
6.480;2.480357;0.061198
6.490;2.494169;0.074039
6.500;2.507504;0.087353
6.510;2.520310;0.101142
6.520;2.532812;0.115406
6.530;2.545488;0.130095
6.540;2.558923;0.145094
6.550;2.573608;0.160237
6.560;2.589782;0.175320
6.570;2.607399;0.190096
6.580;2.626227;0.204266
6.590;2.645990;0.217538
6.600;2.666482;0.229718
6.610;2.687568;0.240795
6.620;2.709116;0.250977
6.630;2.730950;0.260643
6.640;2.752845;0.270271
6.650;2.774546;0.280339
6.660;2.795766;0.291239
6.670;2.816157;0.303172
6.680;2.835320;0.316065
6.690;2.852870;0.329539
6.700;2.868555;0.342965
6.710;2.882359;0.355624
6.720;2.894549;0.366891
6.730;2.905659;0.376396
6.740;2.916411;0.384085
6.750;2.927589;0.390177
6.760;2.939859;0.395030
6.770;2.953580;0.398976
6.780;2.968659;0.402197
6.790;2.984524;0.404693
6.800;3.000220;0.406336
6.810;3.014618;0.406959
6.820;3.026665;0.406425
6.830;3.035611;0.404662
6.840;3.041147;0.401680
6.850;3.043440;0.397577
6.860;3.043040;0.392553
6.870;3.040703;0.386906
6.880;3.037179;0.381014
6.890;3.033033;0.375287
6.900;3.028542;0.370090
6.910;3.023691;0.365668
6.920;3.018261;0.362085
6.930;3.012009;0.359222
6.940;3.004857;0.356814
6.950;2.997035;0.354505
6.960;2.989065;0.351904
6.970;2.981610;0.348641
6.980;2.975260;0.344459
6.990;2.970380;0.339308
7.000;2.967088;0.333408
7.010;2.965331;0.327199
7.020;2.964997;0.321184
7.030;2.965965;0.315740
7.040;2.968085;0.310999
7.050;2.971098;0.306825
7.060;2.974572;0.302883
7.070;2.977902;0.298780
7.080;2.980390;0.294210
7.090;2.981373;0.289074
7.100;2.980353;0.283509
7.110;2.977107;0.277816
7.120;2.971742;0.272322
7.130;2.964673;0.267212
7.140;2.956526;0.262433
7.150;2.947989;0.257725
7.160;2.939626;0.252740
7.170;2.931741;0.247182
7.180;2.924297;0.240894
7.190;2.916942;0.233877
7.200;2.909115;0.226258
7.210;2.900200;0.218224
7.220;2.889684;0.209934
7.230;2.877273;0.201416
7.240;2.862970;0.192518
7.250;2.847087;0.182959
7.260;2.830197;0.172463
7.270;2.813006;0.160909
7.280;2.796176;0.148420
7.290;2.780135;0.135335
7.300;2.764922;0.122097
7.310;2.750150;0.109086
7.320;2.735112;0.096448
7.330;2.719029;0.083988
7.340;2.701335;0.071174
7.350;2.681897;0.057294
7.360;2.661052;0.041708
7.370;2.639481;0.024091
7.380;2.617969;0.004565
7.390;2.597177;-0.016346
7.400;2.577524;-0.037911
7.410;2.559210;-0.059429
7.420;2.542316;-0.080393
7.430;2.526897;-0.100550
7.440;2.513013;-0.119857
7.450;2.500710;-0.138432
7.460;2.489990;-0.156511
7.470;2.480821;-0.174413
7.480;2.473151;-0.192467
7.490;2.466922;-0.210929
7.500;2.462030;-0.229888
7.510;2.458253;-0.249236
7.520;2.455198;-0.268672
7.530;2.452300;-0.287740
7.540;2.448922;-0.305876
7.550;2.444497;-0.322481
7.560;2.438671;-0.337037
7.570;2.431394;-0.349247
7.580;2.422928;-0.359151
7.590;2.413800;-0.367165
7.600;2.404742;-0.374003
7.610;2.396602;-0.380504
7.620;2.390216;-0.387423
7.630;2.386214;-0.395229
7.640;2.384814;-0.403973
7.650;2.385709;-0.413255
7.660;2.388103;-0.422295
7.670;2.390912;-0.430144
7.680;2.393055;-0.435962
7.690;2.393740;-0.439283
7.700;2.392639;-0.440137
7.710;2.389926;-0.438973
7.720;2.386181;-0.436442
7.730;2.382230;-0.433138
7.740;2.378973;-0.429434
7.750;2.377251;-0.425444
7.760;2.377753;-0.421105
7.770;2.380948;-0.416252
7.780;2.387036;-0.410646
7.790;2.395882;-0.403953
7.800;2.407022;-0.395741
7.810;2.419742;-0.385566
7.820;2.433251;-0.373100
7.830;2.446880;-0.358259
7.840;2.460224;-0.341239
7.850;2.473199;-0.322481
7.860;2.485988;-0.302560
7.870;2.498945;-0.282061
7.880;2.512483;-0.261468
7.890;2.526970;-0.241110
7.900;2.542638;-0.221172
7.910;2.559497;-0.201734
7.920;2.577269;-0.182803
7.930;2.595393;-0.164297
7.940;2.613115;-0.146022
7.950;2.629656;-0.127689
7.960;2.644432;-0.109014
7.970;2.657229;-0.089849
7.980;2.668280;-0.070292
7.990;2.678213;-0.050684
8.000;2.687866;-0.031502
8.010;2.698040;-0.013210
8.020;2.709259;0.003863
8.030;2.721604;0.019565
8.040;2.734682;0.033904
8.050;2.747748;0.047014
8.060;2.759957;0.059100
8.070;2.770672;0.070398
8.080;2.779743;0.081127
8.090;2.787616;0.091469
8.100;2.795214;0.101577
8.110;2.803596;0.111581
8.120;2.813547;0.121590
8.130;2.825284;0.131671
8.140;2.838385;0.141833
8.150;2.851974;0.152009
