Time[s];COPx[cm];COPy[cm]
0.010;-1.665807;0.007016
0.020;-1.665244;0.025575
0.030;-1.666510;0.040837
0.040;-1.671073;0.050383
0.050;-1.679786;0.053327
0.060;-1.692719;0.050438
0.070;-1.709183;0.043726
0.080;-1.727993;0.035643
0.090;-1.747878;0.028204
0.100;-1.767894;0.022381
0.110;-1.787648;0.017948
0.120;-1.807231;0.013789
0.130;-1.826921;0.008454
0.140;-1.846809;0.000704
0.150;-1.866577;-0.010144
0.160;-1.885547;-0.024121
0.170;-1.902978;-0.040699
0.180;-1.918459;-0.058987
0.190;-1.932170;-0.077947
0.200;-1.944861;-0.096591
0.210;-1.957580;-0.114136
0.220;-1.971269;-0.130123
0.230;-1.986439;-0.144500
0.240;-2.003041;-0.157611
0.250;-2.020556;-0.170029
0.260;-2.038209;-0.182276
0.270;-2.055217;-0.194546
0.280;-2.070948;-0.206575
0.290;-2.084982;-0.217716
0.300;-2.097069;-0.227154
0.310;-2.107090;-0.234139
0.320;-2.115095;-0.238168
0.330;-2.121433;-0.239081
0.340;-2.126893;-0.237106
0.350;-2.132729;-0.232858
0.360;-2.140450;-0.227256
0.370;-2.151417;-0.221313
0.380;-2.166356;-0.215809
0.390;-2.185013;-0.210967
0.400;-2.206074;-0.206323
0.410;-2.227416;-0.200899
0.420;-2.246582;-0.193659
0.430;-2.261340;-0.184011
0.440;-2.270151;-0.172100
0.450;-2.272415;-0.158757
0.460;-2.268469;-0.145129
0.470;-2.259379;-0.132208
0.480;-2.246660;-0.120498
0.490;-2.231996;-0.109975
0.500;-2.217038;-0.100333
0.510;-2.203261;-0.091333
0.520;-2.191877;-0.083032
0.530;-2.183766;-0.075756
0.540;-2.179460;-0.069851
0.550;-2.179166;-0.065361
0.560;-2.182820;-0.061850
0.570;-2.190098;-0.058461
0.580;-2.200385;-0.054214
0.590;-2.212696;-0.048359
0.600;-2.225606;-0.040619
0.610;-2.237269;-0.031221
0.620;-2.245607;-0.020712
0.630;-2.248712;-0.009694
0.640;-2.245339;0.001396
0.650;-2.235312;0.012371
0.660;-2.219690;0.023270
0.670;-2.200630;0.034269
0.680;-2.180971;0.045618
0.690;-2.163626;0.057595
0.700;-2.150930;0.070494
0.710;-2.144144;0.084606
0.720;-2.143308;0.100170
0.730;-2.147488;0.117293
0.740;-2.155269;0.135851
0.750;-2.165252;0.155426
0.760;-2.176372;0.175305
0.770;-2.187964;0.194596
0.780;-2.199626;0.212444
0.790;-2.211057;0.228270
0.800;-2.221976;0.241939
0.810;-2.232196;0.253788
0.820;-2.241785;0.264523
0.830;-2.251215;0.275044
0.840;-2.261388;0.286243
0.850;-2.273482;0.298808
0.860;-2.288679;0.313060
0.870;-2.307851;0.328838
0.880;-2.331302;0.345474
0.890;-2.358594;0.361876
0.900;-2.388478;0.376788
0.910;-2.418982;0.389155
0.920;-2.447683;0.398490
0.930;-2.472171;0.405019
0.940;-2.490575;0.409539
0.950;-2.502021;0.413040
0.960;-2.506856;0.416308
0.970;-2.506576;0.419698
0.980;-2.503452;0.423132
0.990;-2.499947;0.426214
1.000;-2.498134;0.428367
1.010;-2.499321;0.428943
1.020;-2.503993;0.427327
1.030;-2.512040;0.423111
1.040;-2.523065;0.416279
1.050;-2.536610;0.407331
1.060;-2.552175;0.397220
1.070;-2.569097;0.387111
1.080;-2.586377;0.378038
1.090;-2.602597;0.370613
1.100;-2.615981;0.364875
1.110;-2.624597;0.360316
1.120;-2.626715;0.356076
1.130;-2.621236;0.351227
1.140;-2.608120;0.345073
1.150;-2.588622;0.337366
1.160;-2.565178;0.328382
1.170;-2.540900;0.318837
1.180;-2.518794;0.309662
1.190;-2.500937;0.301701
1.200;-2.487888;0.295396
1.210;-2.478496;0.290607
1.220;-2.470213;0.286631
1.230;-2.459844;0.282443
1.240;-2.444531;0.277065
1.250;-2.422644;0.269913
1.260;-2.394271;0.261001
1.270;-2.361163;0.250897
1.280;-2.326202;0.240492
1.290;-2.292637;0.230652
1.300;-2.263354;0.221912
1.310;-2.240362;0.214326
1.320;-2.224561;0.207552
1.330;-2.215801;0.201135
1.340;-2.213176;0.194822
1.350;-2.215455;0.188716
1.360;-2.221526;0.183178
1.370;-2.230721;0.178571
1.380;-2.242912;0.175045
1.390;-2.258356;0.172499
1.400;-2.277374;0.170733
1.410;-2.299990;0.169664
1.420;-2.325677;0.169456
1.430;-2.353272;0.170464
1.440;-2.381100;0.173024
1.450;-2.407289;0.177219
1.460;-2.430216;0.182778
1.470;-2.448923;0.189183
1.480;-2.463298;0.195911
1.490;-2.473951;0.202692
1.500;-2.481842;0.209617
1.510;-2.487903;0.217079
1.520;-2.492840;0.225566
1.530;-2.497180;0.235442
1.540;-2.501498;0.246805
1.550;-2.506627;0.259437
1.560;-2.513690;0.272817
1.570;-2.523805;0.286167
1.580;-2.537558;0.298566
1.590;-2.554450;0.309121
1.600;-2.572642;0.317186
1.610;-2.589195;0.322528
1.620;-2.600824;0.325401
1.630;-2.604917;0.326476
1.640;-2.600435;0.326671
1.650;-2.588310;0.326935
1.660;-2.571188;0.328055
1.670;-2.552647;0.330506
1.680;-2.536203;0.334356
1.690;-2.524470;0.339210
1.700;-2.518700;0.344258
1.710;-2.518793;0.348452
1.720;-2.523655;0.350787
1.730;-2.531713;0.350605
1.740;-2.541374;0.347794
1.750;-2.551278;0.342785
1.760;-2.560379;0.336365
1.770;-2.567939;0.329395
1.780;-2.573559;0.322565
1.790;-2.577231;0.316295
1.800;-2.579356;0.310792
1.810;-2.580648;0.306200
1.820;-2.581923;0.302688
1.830;-2.583830;0.300408
1.840;-2.586607;0.299332
1.850;-2.589970;0.299105
1.860;-2.593205;0.299043
1.870;-2.595436;0.298304
1.880;-2.595924;0.296173
1.890;-2.594265;0.292315
1.900;-2.590368;0.286870
1.910;-2.584249;0.280343
1.920;-2.575802;0.273373
1.930;-2.564732;0.266538
1.940;-2.550708;0.260242
1.950;-2.533633;0.254714
1.960;-2.513857;0.250054
1.970;-2.492192;0.246287
1.980;-2.469722;0.243395
1.990;-2.447476;0.241305
2.000;-2.426111;0.239857
2.010;-2.405743;0.238787
2.020;-2.386030;0.237782
2.030;-2.366473;0.236558
2.040;-2.346810;0.234915
2.050;-2.327262;0.232726
2.060;-2.308513;0.229884
2.070;-2.291395;0.226273
2.080;-2.276428;0.221769
2.090;-2.263423;0.216260
2.100;-2.251349;0.209700
2.110;-2.238544;0.202143
2.120;-2.223217;0.193748
2.130;-2.204027;0.184722
2.140;-2.180522;0.175236
2.150;-2.153309;0.165364
2.160;-2.123923;0.155092
2.170;-2.094460;0.144387
2.180;-2.067089;0.133313
2.190;-2.043562;0.122113
2.200;-2.024840;0.111226
2.210;-2.010945;0.101242
2.220;-2.001090;0.092788
2.230;-1.994040;0.086375
2.240;-1.988551;0.082202
2.250;-1.983698;0.080035
2.260;-1.979001;0.079236
2.270;-1.974346;0.078992
2.280;-1.969773;0.078631
2.290;-1.965233;0.077861
2.300;-1.960423;0.076794
2.310;-1.954796;0.075770
2.320;-1.947747;0.075115
2.330;-1.938914;0.074946
2.340;-1.928437;0.075150
2.350;-1.917017;0.075518
2.360;-1.905762;0.075952
2.370;-1.895874;0.076613
2.380;-1.888317;0.077918
2.390;-1.883582;0.080414
2.400;-1.881606;0.084577
2.410;-1.881856;0.090644
2.420;-1.883507;0.098526
2.430;-1.885665;0.107847
2.440;-1.887546;0.118036
2.450;-1.888596;0.128441
2.460;-1.888581;0.138446
2.470;-1.887648;0.147590
2.480;-1.886329;0.155681
2.490;-1.885470;0.162887
2.500;-1.886048;0.169757
2.510;-1.888913;0.177132
2.520;-1.894516;0.185947
2.530;-1.902731;0.196962
2.540;-1.912858;0.210511
2.550;-1.923846;0.226353
2.560;-1.934655;0.243688
2.570;-1.944619;0.261310
2.580;-1.953663;0.277869
2.590;-1.962295;0.292191
2.600;-1.971411;0.303565
2.610;-1.981979;0.311898
2.620;-1.994763;0.317659
2.630;-2.010163;0.321626
2.640;-2.028177;0.324600
2.650;-2.048445;0.327228
2.660;-2.070305;0.329985
2.670;-2.092850;0.333228
2.680;-2.114983;0.337203
2.690;-2.135509;0.341979
2.700;-2.153257;0.347395
2.710;-2.167242;0.353140
2.720;-2.176853;0.358949
2.730;-2.182024;0.364777
2.740;-2.183336;0.370821
2.750;-2.181965;0.377358
2.760;-2.179479;0.384511
2.770;-2.177521;0.392093
2.780;-2.177468;0.399602
2.790;-2.180141;0.406353
2.800;-2.185670;0.411665
2.810;-2.193546;0.415056
2.820;-2.202842;0.416392
2.830;-2.212547;0.415972
2.840;-2.221882;0.414489
2.850;-2.230520;0.412843
2.860;-2.238616;0.411880
2.870;-2.246644;0.412160
2.880;-2.255123;0.413847
2.890;-2.264350;0.416738
2.900;-2.274255;0.420359
2.910;-2.284412;0.424051
2.920;-2.294153;0.427020
2.930;-2.302746;0.428420
2.940;-2.309597;0.427501
2.950;-2.314486;0.423856
2.960;-2.317766;0.417673
2.970;-2.320458;0.409857
2.980;-2.324086;0.401914
2.990;-2.330261;0.395585
3.000;-2.340116;0.392345
3.010;-2.353848;0.392966
3.020;-2.370549;0.397309
3.030;-2.388425;0.404393
3.040;-2.405264;0.412698
3.050;-2.418968;0.420559
3.060;-2.427940;0.426529
3.070;-2.431312;0.429635
3.080;-2.429039;0.429499
3.090;-2.421928;0.426364
3.100;-2.411554;0.421065
3.110;-2.400039;0.414895
3.120;-2.389678;0.409339
3.130;-2.382473;0.405701
3.140;-2.379684;0.404768
3.150;-2.381519;0.406679
3.160;-2.387081;0.411015
3.170;-2.394588;0.417034
3.180;-2.401795;0.423906
3.190;-2.406474;0.430857
3.200;-2.406804;0.437260
3.210;-2.401587;0.442682
3.220;-2.390279;0.446907
3.230;-2.372895;0.449904
3.240;-2.349915;0.451709
3.250;-2.322248;0.452295
3.260;-2.291225;0.451540
3.270;-2.258571;0.449320
3.280;-2.226261;0.445690
3.290;-2.196260;0.440990
3.300;-2.170160;0.435807
3.310;-2.148834;0.430806
3.320;-2.132209;0.426566
3.330;-2.119289;0.423510
3.340;-2.108443;0.421918
3.350;-2.097877;0.421973
3.360;-2.086132;0.423753
3.370;-2.072422;0.427163
3.380;-2.056728;0.431848
3.390;-2.039627;0.437131
3.400;-2.021991;0.442014
3.410;-2.004693;0.445252
3.420;-1.988424;0.445529
3.430;-1.973634;0.441747
3.440;-1.960565;0.433348
3.450;-1.949330;0.420560
3.460;-1.939993;0.404436
3.470;-1.932626;0.386661
3.480;-1.927356;0.369177
3.490;-1.924392;0.353692
3.500;-1.924023;0.341248
3.510;-1.926588;0.331991
3.520;-1.932377;0.325280
3.530;-1.941482;0.320072
3.540;-1.953601;0.315411
3.550;-1.967895;0.310818
3.560;-1.982980;0.306401
3.570;-1.997153;0.302685
3.580;-2.008813;0.300248
3.590;-2.016931;0.299357
3.600;-2.021390;0.299761
3.610;-2.022991;0.300740
3.620;-2.023127;0.301358
3.630;-2.023261;0.300803
3.640;-2.024490;0.298660
3.650;-2.027369;0.295036
3.660;-2.032027;0.290501
3.670;-2.038423;0.285918
3.680;-2.046516;0.282245
3.690;-2.056280;0.280350
3.700;-2.067559;0.280842
3.710;-2.079909;0.283928
3.720;-2.092572;0.289391
3.730;-2.104649;0.296700
3.740;-2.115423;0.305206
3.750;-2.124663;0.314278
3.760;-2.132730;0.323372
3.770;-2.140423;0.332078
3.780;-2.148659;0.340213
3.790;-2.158132;0.347894
3.800;-2.169115;0.355491
3.810;-2.181425;0.363373
3.820;-2.194519;0.371554
3.830;-2.207644;0.379481
3.840;-2.219946;0.386117
3.850;-2.230527;0.390333
3.860;-2.238476;0.391378
3.870;-2.242966;0.389208
3.880;-2.243427;0.384507
3.890;-2.239752;0.378445
3.900;-2.232445;0.372321
3.910;-2.222671;0.367247
3.920;-2.212148;0.363917
3.930;-2.202890;0.362459
3.940;-2.196796;0.362362
3.950;-2.195193;0.362539
3.960;-2.198489;0.361609
3.970;-2.206076;0.358338
3.980;-2.216506;0.352062
3.990;-2.227843;0.342848
4.000;-2.238074;0.331289
4.010;-2.245464;0.318057
4.020;-2.248802;0.303481
4.030;-2.247488;0.287409
4.040;-2.241495;0.269446
4.050;-2.231225;0.249419
4.060;-2.217375;0.227771
4.070;-2.200829;0.205605
4.080;-2.182602;0.184349
4.090;-2.163791;0.165230
4.100;-2.145544;0.148846
4.110;-2.129061;0.135051
4.120;-2.115613;0.123132
4.130;-2.106525;0.112162
4.140;-2.103034;0.101323
4.150;-2.105977;0.090145
4.160;-2.115439;0.078615
4.170;-2.130511;0.067159
4.180;-2.149330;0.056491
4.190;-2.169414;0.047338
4.200;-2.188203;0.040113
4.210;-2.203605;0.034657
4.220;-2.214368;0.030206
4.230;-2.220173;0.025637
4.240;-2.221485;0.019970
4.250;-2.219302;0.012893
4.260;-2.214933;0.005037
4.270;-2.209829;-0.002174
4.280;-2.205449;-0.007097
4.290;-2.203093;-0.008542
4.300;-2.203676;-0.006206
4.310;-2.207498;-0.000654
4.320;-2.214099;0.007048
4.330;-2.222312;0.015779
4.340;-2.230527;0.024629
4.350;-2.237119;0.032943
4.360;-2.240897;0.040244
4.370;-2.241457;0.046202
4.380;-2.239292;0.050670
4.390;-2.235608;0.053758
4.400;-2.231887;0.055820
4.410;-2.229374;0.057336
4.420;-2.228705;0.058738
4.430;-2.229825;0.060306
4.440;-2.232194;0.062143
4.450;-2.235120;0.064206
4.460;-2.238055;0.066329
4.470;-2.240705;0.068253
4.480;-2.242970;0.069695
4.490;-2.244794;0.070445
4.500;-2.246058;0.070448
4.510;-2.246584;0.069819
4.520;-2.246199;0.068794
4.530;-2.244779;0.067644
4.540;-2.242228;0.066603
4.550;-2.238426;0.065829
4.560;-2.233239;0.065408
4.570;-2.226591;0.065371
4.580;-2.218559;0.065733
4.590;-2.209390;0.066520
4.600;-2.199439;0.067788
4.610;-2.189028;0.069590
4.620;-2.178322;0.071951
4.630;-2.167280;0.074871
4.640;-2.155687;0.078379
4.650;-2.143219;0.082564
4.660;-2.129528;0.087521
4.670;-2.114345;0.093206
4.680;-2.097619;0.099291
4.690;-2.079620;0.105131
4.700;-2.060916;0.109894
4.710;-2.042195;0.112832
4.720;-2.024020;0.113554
4.730;-2.006663;0.112195
4.740;-1.990092;0.109401
4.750;-1.974068;0.106150
4.760;-1.958264;0.103503
4.770;-1.942356;0.102383
4.780;-1.926152;0.103388
4.790;-1.909744;0.106646
4.800;-1.893625;0.111717
4.810;-1.878649;0.117664
4.820;-1.865811;0.123322
4.830;-1.855887;0.127665
4.840;-1.849139;0.130101
4.850;-1.845205;0.130574
4.860;-1.843242;0.129524
4.870;-1.842237;0.127740
4.880;-1.841332;0.126179
4.890;-1.840034;0.125741
4.900;-1.838267;0.127023
4.910;-1.836274;0.130146
4.920;-1.834452;0.134726
4.930;-1.833177;0.140049
4.940;-1.832718;0.145345
4.950;-1.833277;0.150018
4.960;-1.835120;0.153737
4.970;-1.838724;0.156381
4.980;-1.844833;0.157941
4.990;-1.854331;0.158468
5.000;-1.867988;0.158107
5.010;-1.886193;0.157149
5.020;-1.908840;0.156012
5.030;-1.935417;0.155141
5.040;-1.965194;0.154890
5.050;-1.997354;0.155455
5.060;-2.031007;0.156886
5.070;-2.065127;0.159127
5.080;-2.098542;0.162045
5.090;-2.130023;0.165442
5.100;-2.158474;0.169061
5.110;-2.183153;0.172634
5.120;-2.203824;0.175974
5.130;-2.220751;0.179092
5.140;-2.234536;0.182265
5.150;-2.245857;0.186034
5.160;-2.255238;0.191080
5.170;-2.262948;0.198029
5.180;-2.269054;0.207232
5.190;-2.273605;0.218601
5.200;-2.276820;0.231583
5.210;-2.279176;0.245298
5.220;-2.281334;0.258804
5.230;-2.283936;0.271362
5.240;-2.287372;0.282586
5.250;-2.291641;0.292395
5.260;-2.296340;0.300826
5.270;-2.300782;0.307875
5.280;-2.304188;0.313493
5.290;-2.305885;0.317721
5.300;-2.305440;0.320834
5.310;-2.302713;0.323366
5.320;-2.297862;0.325978
5.330;-2.291325;0.329226
5.340;-2.283820;0.333333
5.350;-2.276321;0.338065
5.360;-2.270007;0.342791
5.370;-2.266152;0.346716
5.380;-2.265950;0.349163
5.390;-2.270290;0.349769
5.400;-2.279580;0.348593
5.410;-2.293705;0.346129
5.420;-2.312129;0.343246
5.430;-2.334089;0.340995
5.440;-2.358733;0.340278
5.450;-2.385134;0.341470
5.460;-2.412192;0.344190
5.470;-2.438541;0.347400
5.480;-2.462673;0.349794
5.490;-2.483352;0.350330
5.500;-2.500161;0.348622
5.510;-2.513842;0.345040
5.520;-2.526140;0.340495
5.530;-2.539122;0.336066
5.540;-2.554252;0.332641
5.550;-2.571662;0.330725
5.560;-2.589965;0.330467
5.570;-2.606706;0.331840
5.580;-2.619269;0.334824
5.590;-2.625850;0.339482
5.600;-2.626122;0.345891
5.610;-2.621350;0.353962
5.620;-2.613956;0.363253
5.630;-2.606760;0.372915
5.640;-2.602202;0.381829
5.650;-2.601773;0.388949
5.660;-2.605812;0.393691
5.670;-2.613699;0.396192
5.680;-2.624325;0.397251
5.690;-2.636645;0.397948
5.700;-2.650087;0.399131
5.710;-2.664684;0.401045
5.720;-2.680904;0.403326
5.730;-2.699302;0.405339
5.740;-2.720115;0.406649
5.750;-2.742982;0.407313
5.760;-2.766890;0.407886
5.770;-2.790354;0.409163
5.780;-2.811760;0.411848
5.790;-2.829724;0.416316
5.800;-2.843343;0.422522
5.810;-2.852322;0.430018
5.820;-2.856959;0.438024
5.830;-2.858029;0.445575
5.840;-2.856571;0.451751
5.850;-2.853649;0.455946
5.860;-2.850191;0.458052
5.870;-2.846974;0.458442
5.880;-2.844737;0.457769
5.890;-2.844285;0.456691
5.900;-2.846468;0.455677
5.910;-2.852009;0.454923
5.920;-2.861256;0.454378
5.930;-2.873985;0.453813
5.940;-2.889370;0.452925
5.950;-2.906135;0.451472
5.960;-2.922768;0.449413
5.970;-2.937695;0.446950
5.980;-2.949368;0.444449
5.990;-2.956341;0.442220
6.000;-2.957415;0.440305
6.010;-2.951893;0.438411
6.020;-2.939899;0.436091
6.030;-2.922604;0.433062
6.040;-2.902201;0.429462
6.050;-2.881553;0.425837
6.060;-2.863565;0.422867
6.070;-2.850548;0.420994
6.080;-2.843788;0.420207
6.090;-2.843471;0.420104
6.100;-2.848880;0.420163
6.110;-2.858715;0.420045
6.120;-2.871367;0.419728
6.130;-2.885111;0.419446
6.140;-2.898266;0.419499
6.150;-2.909333;0.420079
6.160;-2.917163;0.421198
6.170;-2.921122;0.422735
6.180;-2.921242;0.424557
6.190;-2.918259;0.426619
6.200;-2.913491;0.428990
6.210;-2.908528;0.431775
6.220;-2.904825;0.434997
6.230;-2.903340;0.438520
6.240;-2.904362;0.442042
6.250;-2.907579;0.445174
6.260;-2.912318;0.447537
6.270;-2.917829;0.448821
6.280;-2.923449;0.448814
6.290;-2.928595;0.447382
6.300;-2.932622;0.444461
6.310;-2.934688;0.440045
6.320;-2.933774;0.434202
6.330;-2.928889;0.427117
6.340;-2.919391;0.419145
6.350;-2.905299;0.410812
6.360;-2.887444;0.402750
6.370;-2.867424;0.395582
6.380;-2.847357;0.389832
6.390;-2.829525;0.385883
6.400;-2.815975;0.383921
6.410;-2.808127;0.383850
6.420;-2.806478;0.385217
6.430;-2.810503;0.387211
6.440;-2.818819;0.388807
6.450;-2.829601;0.388982
6.460;-2.841079;0.386949
6.470;-2.851948;0.382299
6.480;-2.861547;0.375036
6.490;-2.869805;0.365484
6.500;-2.877016;0.354107
6.510;-2.883576;0.341352
6.520;-2.889768;0.327612
6.530;-2.895634;0.313323
6.540;-2.900969;0.299086
6.550;-2.905407;0.285649
6.560;-2.908597;0.273711
6.570;-2.910385;0.263692
6.580;-2.910957;0.255627
6.590;-2.910897;0.249270
6.600;-2.911122;0.244319
6.610;-2.912720;0.240602
6.620;-2.916714;0.238112
6.630;-2.923837;0.236905
6.640;-2.934385;0.236958
6.650;-2.948189;0.238087
6.660;-2.964712;0.239973
6.670;-2.983225;0.242246
6.680;-3.002963;0.244582
6.690;-3.023228;0.246751
6.700;-3.043404;0.248593
6.710;-3.062921;0.249959
6.720;-3.081202;0.250670
6.730;-3.097647;0.250526
6.740;-3.111676;0.249348
6.750;-3.122833;0.247048
6.760;-3.130912;0.243685
6.770;-3.136030;0.239514
6.780;-3.138578;0.234999
6.790;-3.139038;0.230797
6.800;-3.137727;0.227671
6.810;-3.134622;0.226318
6.820;-3.129350;0.227164
6.830;-3.121367;0.230212
6.840;-3.110248;0.235089
6.850;-3.095954;0.241275
6.860;-3.078932;0.248375
6.870;-3.060054;0.256255
6.880;-3.040427;0.264968
6.890;-3.021206;0.274585
6.900;-3.003459;0.285058
6.910;-2.988056;0.296201
6.920;-2.975591;0.307723
6.930;-2.966314;0.319249
6.940;-2.960125;0.330304
6.950;-2.956617;0.340336
6.960;-2.955139;0.348840
6.970;-2.954804;0.355581
6.980;-2.954455;0.360788
6.990;-2.952662;0.365187
7.000;-2.947820;0.369829
7.010;-2.938361;0.375778
7.020;-2.923034;0.383795
7.030;-2.901150;0.394118
7.040;-2.872725;0.406403
7.050;-2.838483;0.419817
7.060;-2.799715;0.433262
7.070;-2.758067;0.445654
7.080;-2.715310;0.456203
7.090;-2.673186;0.464600
7.100;-2.633356;0.471047
7.110;-2.597403;0.476074
7.120;-2.566799;0.480266
7.130;-2.542732;0.484014
7.140;-2.525835;0.487422
7.150;-2.515931;0.490359
7.160;-2.511946;0.492582
7.170;-2.512095;0.493889
7.180;-2.514343;0.494247
7.190;-2.516971;0.493904
7.200;-2.519029;0.493424
7.210;-2.520507;0.493607
7.220;-2.522182;0.495278
7.230;-2.525275;0.499014
7.240;-2.531079;0.504939
7.250;-2.540712;0.512696
7.260;-2.555028;0.521637
7.270;-2.574616;0.531124
7.280;-2.599760;0.540764
7.290;-2.630315;0.550448
7.300;-2.665523;0.560202
7.310;-2.703924;0.570004
7.320;-2.743422;0.579706
7.330;-2.781552;0.589113
7.340;-2.815868;0.598098
7.350;-2.844387;0.606623
7.360;-2.865982;0.614637
7.370;-2.880665;0.621906
7.380;-2.889654;0.627937
7.390;-2.895131;0.632082
7.400;-2.899717;0.633793
7.410;-2.905811;0.632909
7.420;-2.915030;0.629817
7.430;-2.927951;0.625421
7.440;-2.944214;0.620881
7.450;-2.962894;0.617271
7.460;-2.982955;0.615297
7.470;-3.003567;0.615212
7.480;-3.024167;0.616916
7.490;-3.044300;0.620134
7.500;-3.063367;0.624560
7.510;-3.080485;0.629914
7.520;-3.094538;0.635963
7.530;-3.104434;0.642514
7.540;-3.109433;0.649394
7.550;-3.109406;0.656430
7.560;-3.104936;0.663404
7.570;-3.097243;0.670057
7.580;-3.087962;0.676168
7.590;-3.078867;0.681726
7.600;-3.071574;0.687111
7.610;-3.067259;0.693152
7.620;-3.066423;0.700926
7.630;-3.068737;0.711383
7.640;-3.073031;0.724944
7.650;-3.077476;0.741291
7.660;-3.079960;0.759435
7.670;-3.078591;0.778009
7.680;-3.072217;0.795658
7.690;-3.060781;0.811387
7.700;-3.045404;0.824766
7.710;-3.028149;0.835959
7.720;-3.011523;0.845548
7.730;-2.997849;0.854277
7.740;-2.988672;0.862791
7.750;-2.984359;0.871502
7.760;-2.984020;0.880605
7.770;-2.985760;0.890149
7.780;-2.987190;0.900083
7.790;-2.986005;0.910202
7.800;-2.980441;0.920078
7.810;-2.969526;0.929096
7.820;-2.953125;0.936647
7.830;-2.931844;0.942375
7.840;-2.906849;0.946313
7.850;-2.879636;0.948822
7.860;-2.851780;0.950376
7.870;-2.824720;0.951353
7.880;-2.799593;0.951940
7.890;-2.777175;0.952193
7.900;-2.757903;0.952194
7.910;-2.741911;0.952214
7.920;-2.729052;0.952746
7.930;-2.718904;0.954339
7.940;-2.710809;0.957300
7.950;-2.703929;0.961426
7.960;-2.697314;0.965953
