Time[s];COPx[cm];COPy[cm]
0.010;-0.952715;-0.272720
0.020;-0.970126;-0.266818
0.030;-0.986521;-0.259788
0.040;-1.001177;-0.250809
0.050;-1.013850;-0.239599
0.060;-1.024790;-0.226401
0.070;-1.034582;-0.211775
0.080;-1.043889;-0.196295
0.090;-1.053183;-0.180311
0.100;-1.062572;-0.163907
0.110;-1.071783;-0.147047
0.120;-1.080284;-0.129803
0.130;-1.087482;-0.112480
0.140;-1.092923;-0.095559
0.150;-1.096423;-0.079488
0.160;-1.098084;-0.064456
0.170;-1.098209;-0.050280
0.180;-1.097140;-0.036494
0.190;-1.095118;-0.022640
0.200;-1.092186;-0.008639
0.210;-1.088186;0.004952
0.220;-1.082822;0.016953
0.230;-1.075784;0.025890
0.240;-1.066873;0.030530
0.250;-1.056094;0.030378
0.260;-1.043685;0.025940
0.270;-1.030072;0.018633
0.280;-1.015810;0.010381
0.290;-1.001497;0.003064
0.300;-0.987713;-0.001975
0.310;-0.974969;-0.004214
0.320;-0.963684;-0.003946
0.330;-0.954179;-0.002039
0.340;-0.946699;0.000437
0.350;-0.941442;0.002550
0.360;-0.938554;0.003745
0.370;-0.938099;0.003916
0.380;-0.940007;0.003351
0.390;-0.944049;0.002573
0.400;-0.949846;0.002126
0.410;-0.956915;0.002388
0.420;-0.964723;0.003460
0.430;-0.972741;0.005178
0.440;-0.980516;0.007217
0.450;-0.987735;0.009229
0.460;-0.994274;0.010959
0.470;-1.000214;0.012297
0.480;-1.005782;0.013282
0.490;-1.011272;0.014058
0.500;-1.016954;0.014808
0.510;-1.023031;0.015676
0.520;-1.029612;0.016704
0.530;-1.036698;0.017829
0.540;-1.044178;0.018925
0.550;-1.051885;0.019909
0.560;-1.059673;0.020859
0.570;-1.067490;0.022051
0.580;-1.075362;0.023902
0.590;-1.083264;0.026813
0.600;-1.090926;0.030993
0.610;-1.097691;0.036321
0.620;-1.102549;0.042299
0.630;-1.104430;0.048130
0.640;-1.102639;0.052902
0.650;-1.097220;0.055827
0.660;-1.089050;0.056448
0.670;-1.079619;0.054710
0.680;-1.070615;0.050874
0.690;-1.063492;0.045322
0.700;-1.059173;0.038380
0.710;-1.057926;0.030253
0.720;-1.059405;0.021103
0.730;-1.062798;0.011194
0.740;-1.067045;0.001001
0.750;-1.071038;-0.008769
0.760;-1.073780;-0.017283
0.770;-1.074468;-0.023769
0.780;-1.072550;-0.027716
0.790;-1.067771;-0.028984
0.800;-1.060206;-0.027810
0.810;-1.050246;-0.024709
0.820;-1.038516;-0.020363
0.830;-1.025774;-0.015525
0.840;-1.012784;-0.010950
0.850;-1.000245;-0.007312
0.860;-0.988759;-0.005084
0.870;-0.978816;-0.004420
0.880;-0.970772;-0.005104
0.890;-0.964780;-0.006608
0.900;-0.960733;-0.008241
0.910;-0.958254;-0.009330
0.920;-0.956764;-0.009371
0.930;-0.955586;-0.008089
0.940;-0.954042;-0.005431
0.950;-0.951535;-0.001522
0.960;-0.947611;0.003366
0.970;-0.942012;0.008831
0.980;-0.934713;0.014362
0.990;-0.925930;0.019406
1.000;-0.916094;0.023459
1.010;-0.905769;0.026186
1.020;-0.895532;0.027523
1.030;-0.885843;0.027728
1.040;-0.876951;0.027331
1.050;-0.868897;0.026981
1.060;-0.861591;0.027227
1.070;-0.854907;0.028344
1.080;-0.848724;0.030262
1.090;-0.842889;0.032641
1.100;-0.837159;0.035044
1.110;-0.831172;0.037132
1.120;-0.824514;0.038800
1.130;-0.816826;0.040209
1.140;-0.807908;0.041702
1.150;-0.797768;0.043618
1.160;-0.786603;0.046093
1.170;-0.774739;0.048934
1.180;-0.762558;0.051636
1.190;-0.750429;0.053577
1.200;-0.738676;0.054279
1.210;-0.727541;0.053621
1.220;-0.717157;0.051868
1.230;-0.707505;0.049551
1.240;-0.698386;0.047269
1.250;-0.689450;0.045529
1.260;-0.680293;0.044643
1.270;-0.670609;0.044696
1.280;-0.660322;0.045572
1.290;-0.649660;0.047049
1.300;-0.639130;0.048923
1.310;-0.629406;0.051074
1.320;-0.621158;0.053423
1.330;-0.614872;0.055810
1.340;-0.610704;0.057881
1.350;-0.608403;0.059099
1.360;-0.607316;0.058881
1.370;-0.606509;0.056820
1.380;-0.605013;0.052869
1.390;-0.602141;0.047412
1.400;-0.597751;0.041184
1.410;-0.592363;0.035079
1.420;-0.587047;0.029906
1.430;-0.583145;0.026171
1.440;-0.581910;0.023934
1.450;-0.584162;0.022784
1.460;-0.590079;0.021990
1.470;-0.599156;0.020783
1.480;-0.610361;0.018650
1.490;-0.622416;0.015492
1.500;-0.634145;0.011594
1.510;-0.644750;0.007447
1.520;-0.653947;0.003535
1.530;-0.661911;0.000147
1.540;-0.669080;-0.002716
1.550;-0.675927;-0.005340
1.560;-0.682825;-0.008185
1.570;-0.690013;-0.011706
1.580;-0.697655;-0.016159
1.590;-0.705923;-0.021475
1.600;-0.715028;-0.027229
1.610;-0.725187;-0.032706
1.620;-0.736517;-0.037051
1.630;-0.748916;-0.039489
1.640;-0.761983;-0.039571
1.650;-0.775021;-0.037367
1.660;-0.787145;-0.033511
1.670;-0.797498;-0.029058
1.680;-0.805518;-0.025197
1.690;-0.811159;-0.022937
1.700;-0.814955;-0.022859
1.710;-0.817867;-0.025017
1.720;-0.820978;-0.028969
1.730;-0.825150;-0.033940
1.740;-0.830773;-0.039052
1.750;-0.837665;-0.043561
1.760;-0.845152;-0.047031
1.770;-0.852265;-0.049425
1.780;-0.858007;-0.051059
1.790;-0.861646;-0.052448
1.800;-0.862936;-0.054079
1.810;-0.862205;-0.056213
1.820;-0.860270;-0.058802
1.830;-0.858186;-0.061539
1.840;-0.856927;-0.064009
1.850;-0.857077;-0.065883
1.860;-0.858661;-0.067068
1.870;-0.861146;-0.067751
1.880;-0.863640;-0.068323
1.890;-0.865202;-0.069231
1.900;-0.865188;-0.070831
1.910;-0.863479;-0.073332
1.920;-0.860540;-0.076813
1.930;-0.857262;-0.081263
1.940;-0.854659;-0.086596
1.950;-0.853506;-0.092621
1.960;-0.854081;-0.099027
1.970;-0.856068;-0.105392
1.980;-0.858665;-0.111237
1.990;-0.860823;-0.116091
2.000;-0.861541;-0.119561
2.010;-0.860139;-0.121393
2.020;-0.856448;-0.121512
2.030;-0.850884;-0.120029
2.040;-0.844373;-0.117214
2.050;-0.838143;-0.113433
2.060;-0.833406;-0.109070
2.070;-0.831024;-0.104454
2.080;-0.831254;-0.099806
2.090;-0.833671;-0.095211
2.100;-0.837291;-0.090603
2.110;-0.840858;-0.085769
2.120;-0.843187;-0.080377
2.130;-0.843436;-0.074051
2.140;-0.841261;-0.066446
2.150;-0.836845;-0.057336
2.160;-0.830807;-0.046675
2.170;-0.824044;-0.034627
2.180;-0.817525;-0.021541
2.190;-0.812077;-0.007860
2.200;-0.808217;0.005993
2.210;-0.806088;0.019700
2.220;-0.805519;0.033058
2.230;-0.806191;0.045907
2.240;-0.807813;0.058058
2.250;-0.810235;0.069295
2.260;-0.813454;0.079448
2.270;-0.817502;0.088521
2.280;-0.822304;0.096773
2.290;-0.827571;0.104719
2.300;-0.832783;0.113040
2.310;-0.837273;0.122414
2.320;-0.840398;0.133324
2.330;-0.841707;0.145891
2.340;-0.841062;0.159767
2.350;-0.838642;0.174118
2.360;-0.834853;0.187703
2.370;-0.830204;0.199070
2.380;-0.825190;0.206876
2.390;-0.820230;0.210246
2.400;-0.815638;0.209055
2.410;-0.811609;0.203969
2.420;-0.808220;0.196240
2.430;-0.805468;0.187298
2.440;-0.803347;0.178352
2.450;-0.801938;0.170120
2.460;-0.801433;0.162780
2.470;-0.802076;0.156108
2.480;-0.804022;0.149718
2.490;-0.807216;0.143318
2.500;-0.811382;0.136871
2.510;-0.816159;0.130626
2.520;-0.821306;0.125018
2.530;-0.826871;0.120483
2.540;-0.833206;0.117281
2.550;-0.840834;0.115405
2.560;-0.850227;0.114592
2.570;-0.861636;0.114445
2.580;-0.875037;0.114582
2.590;-0.890201;0.114748
2.600;-0.906823;0.114879
2.610;-0.924603;0.115082
2.620;-0.943263;0.115562
2.630;-0.962482;0.116481
2.640;-0.981803;0.117819
2.650;-1.000589;0.119295
2.660;-1.018087;0.120401
2.670;-1.033618;0.120532
2.680;-1.046827;0.119170
2.690;-1.057901;0.116032
2.700;-1.067635;0.111141
2.710;-1.077290;0.104762
2.720;-1.088277;0.097248
2.730;-1.101743;0.088868
2.740;-1.118222;0.079723
2.750;-1.137491;0.069766
2.760;-1.158692;0.058890
2.770;-1.180671;0.047014
2.780;-1.202357;0.034146
2.790;-1.223040;0.020428
2.800;-1.242489;0.006158
2.810;-1.260894;-0.008216
2.820;-1.278722;-0.022134
2.830;-1.296535;-0.034991
2.840;-1.314825;-0.046214
2.850;-1.333890;-0.055359
2.860;-1.353797;-0.062213
2.870;-1.374399;-0.066883
2.880;-1.395374;-0.069821
2.890;-1.416255;-0.071785
2.900;-1.436443;-0.073724
2.910;-1.455232;-0.076615
2.920;-1.471893;-0.081277
2.930;-1.485828;-0.088204
2.940;-1.496729;-0.097469
2.950;-1.504691;-0.108754
2.960;-1.510211;-0.121473
2.970;-1.514108;-0.134935
2.980;-1.517390;-0.148466
2.990;-1.521105;-0.161490
3.000;-1.526180;-0.173584
3.010;-1.533266;-0.184536
3.020;-1.542642;-0.194393
3.030;-1.554203;-0.203468
3.040;-1.567578;-0.212270
3.050;-1.582307;-0.221366
3.060;-1.598033;-0.231245
3.070;-1.614608;-0.242200
3.080;-1.632093;-0.254301
3.090;-1.650620;-0.267406
3.100;-1.670202;-0.281228
3.110;-1.690549;-0.295413
3.120;-1.711011;-0.309633
3.130;-1.730710;-0.323656
3.140;-1.748829;-0.337366
3.150;-1.764925;-0.350743
3.160;-1.779123;-0.363803
3.170;-1.792080;-0.376556
3.180;-1.804743;-0.388968
3.190;-1.818017;-0.400948
3.200;-1.832455;-0.412360
3.210;-1.848071;-0.423057
3.220;-1.864304;-0.432947
3.230;-1.880133;-0.442041
3.240;-1.894303;-0.450493
3.250;-1.905621;-0.458580
3.260;-1.913243;-0.466649
3.270;-1.916903;-0.475023
3.280;-1.916982;-0.483879
3.290;-1.914412;-0.493120
3.300;-1.910432;-0.502306
3.310;-1.906293;-0.510716
3.320;-1.902978;-0.517566
3.330;-1.901016;-0.522313
3.340;-1.900405;-0.524898
3.350;-1.900677;-0.525821
3.360;-1.901065;-0.525991
3.370;-1.900721;-0.526398
3.380;-1.898924;-0.527733
3.390;-1.895222;-0.530119
3.400;-1.889504;-0.533074
3.410;-1.882003;-0.535717
3.420;-1.873246;-0.537142
3.430;-1.863939;-0.536771
3.440;-1.854797;-0.534538
3.450;-1.846345;-0.530821
3.460;-1.838764;-0.526202
3.470;-1.831840;-0.521186
3.480;-1.825039;-0.516003
3.490;-1.817681;-0.510563
3.500;-1.809151;-0.504537
3.510;-1.799064;-0.497504
3.520;-1.787355;-0.489082
3.530;-1.774265;-0.479029
3.540;-1.760215;-0.467309
3.550;-1.745608;-0.454114
3.560;-1.730597;-0.439819
3.570;-1.714951;-0.424871
3.580;-1.698091;-0.409656
3.590;-1.679337;-0.394438
3.600;-1.658261;-0.379383
3.610;-1.634991;-0.364642
3.620;-1.610311;-0.350420
3.630;-1.585477;-0.336972
3.640;-1.561821;-0.324528
3.650;-1.540315;-0.313177
3.660;-1.521268;-0.302794
3.670;-1.504284;-0.293034
3.680;-1.488454;-0.283423
3.690;-1.472719;-0.273469
3.700;-1.456215;-0.262734
3.710;-1.438500;-0.250860
3.720;-1.419618;-0.237560
3.730;-1.400030;-0.222633
3.740;-1.380467;-0.206022
3.750;-1.361751;-0.187886
3.760;-1.344609;-0.168638
3.770;-1.329517;-0.148881
3.780;-1.316606;-0.129236
3.790;-1.305635;-0.110122
3.800;-1.296035;-0.091591
3.810;-1.287014;-0.073320
3.820;-1.277742;-0.054773
3.830;-1.267589;-0.035439
3.840;-1.256371;-0.015061
3.850;-1.244506;0.006245
3.860;-1.233021;0.027998
3.870;-1.223331;0.049477
3.880;-1.216834;0.069903
3.890;-1.214446;0.088597
3.900;-1.216268;0.105057
3.910;-1.221551;0.118972
3.920;-1.228964;0.130176
3.930;-1.237051;0.138605
3.940;-1.244670;0.144271
3.950;-1.251249;0.147267
3.960;-1.256794;0.147804
3.970;-1.261692;0.146230
3.980;-1.266448;0.143028
3.990;-1.271463;0.138749
4.000;-1.276927;0.133926
4.010;-1.282820;0.128975
4.020;-1.289008;0.124086
4.030;-1.295369;0.119147
4.040;-1.301894;0.113734
4.050;-1.308718;0.107241
4.060;-1.316081;0.099147
4.070;-1.324274;0.089289
4.080;-1.333603;0.077990
4.090;-1.344365;0.065952
4.100;-1.356810;0.053994
4.110;-1.371042;0.042782
4.120;-1.386892;0.032681
4.130;-1.403829;0.023797
4.140;-1.420949;0.016129
4.150;-1.437104;0.009721
4.160;-1.451108;0.004700
4.170;-1.461962;0.001213
4.180;-1.469057;-0.000646
4.190;-1.472303;-0.000879
4.200;-1.472166;0.000390
4.210;-1.469600;0.002860
4.220;-1.465857;0.005992
4.230;-1.462193;0.009005
4.240;-1.459557;0.010990
4.250;-1.458400;0.011153
4.260;-1.458653;0.009096
4.270;-1.459877;0.005017
4.280;-1.461488;-0.000317
4.290;-1.462960;-0.005808
4.300;-1.463949;-0.010381
4.310;-1.464296;-0.013277
4.320;-1.463974;-0.014191
4.330;-1.463005;-0.013247
4.340;-1.461428;-0.010883
4.350;-1.459315;-0.007701
4.360;-1.456828;-0.004337
4.370;-1.454251;-0.001366
4.380;-1.451967;0.000772
4.390;-1.450361;0.001776
4.400;-1.449697;0.001463
4.410;-1.450051;-0.000278
4.420;-1.451319;-0.003507
4.430;-1.453308;-0.008204
4.440;-1.455848;-0.014230
4.450;-1.458869;-0.021307
4.460;-1.462382;-0.029044
4.470;-1.466384;-0.037012
4.480;-1.470723;-0.044836
4.490;-1.475021;-0.052260
4.500;-1.478709;-0.059171
4.510;-1.481175;-0.065590
4.520;-1.481943;-0.071621
4.530;-1.480792;-0.077380
4.540;-1.477773;-0.082910
4.550;-1.473143;-0.088129
4.560;-1.467284;-0.092861
4.570;-1.460645;-0.096916
4.580;-1.453706;-0.100186
4.590;-1.446951;-0.102668
4.600;-1.440829;-0.104403
4.610;-1.435677;-0.105360
4.620;-1.431641;-0.105355
4.630;-1.428600;-0.104059
4.640;-1.426167;-0.101099
4.650;-1.423788;-0.096178
4.660;-1.420922;-0.089172
4.670;-1.417222;-0.080152
4.680;-1.412653;-0.069368
4.690;-1.407479;-0.057211
4.700;-1.402147;-0.044167
4.710;-1.397111;-0.030763
4.720;-1.392658;-0.017520
4.730;-1.388784;-0.004900
4.740;-1.385147;0.006717
4.750;-1.381140;0.017060
4.760;-1.376078;0.025963
4.770;-1.369440;0.033346
4.780;-1.361074;0.039131
4.790;-1.351300;0.043137
4.800;-1.340878;0.045047
4.810;-1.330854;0.044514
4.820;-1.322322;0.041374
4.830;-1.316154;0.035842
4.840;-1.312754;0.028551
4.850;-1.311946;0.020410
4.860;-1.313021;0.012323
4.870;-1.314954;0.004885
4.880;-1.316691;-0.001828
4.890;-1.317416;-0.008290
4.900;-1.316690;-0.015388
4.910;-1.314447;-0.024161
4.920;-1.310872;-0.035529
4.930;-1.306277;-0.050063
4.940;-1.301020;-0.067845
4.950;-1.295502;-0.088446
4.960;-1.290203;-0.111038
4.970;-1.285689;-0.134613
4.980;-1.282555;-0.158258
4.990;-1.281306;-0.181393
5.000;-1.282180;-0.203898
5.010;-1.284976;-0.226087
5.020;-1.288989;-0.248560
5.030;-1.293119;-0.271946
5.040;-1.296155;-0.296609
5.050;-1.297120;-0.322413
5.060;-1.295532;-0.348652
5.070;-1.291501;-0.374192
5.080;-1.285640;-0.397784
5.090;-1.278829;-0.418446
5.100;-1.271952;-0.435754
5.110;-1.265664;-0.449927
5.120;-1.260288;-0.461695
5.130;-1.255830;-0.472008
5.140;-1.252071;-0.481715
5.150;-1.248682;-0.491340
5.160;-1.245322;-0.500996
5.170;-1.241735;-0.510433
5.180;-1.237839;-0.519175
5.190;-1.233796;-0.526709
5.200;-1.230025;-0.532650
5.210;-1.227113;-0.536857
5.220;-1.225664;-0.539455
5.230;-1.226104;-0.540778
5.240;-1.228529;-0.541267
5.250;-1.232646;-0.541360
5.260;-1.237804;-0.541420
5.270;-1.243114;-0.541697
5.280;-1.247608;-0.542327
5.290;-1.250405;-0.543310
5.300;-1.250893;-0.544475
5.310;-1.248882;-0.545449
5.320;-1.244664;-0.545709
5.330;-1.238940;-0.544717
5.340;-1.232632;-0.542103
5.350;-1.226671;-0.537780
5.360;-1.221829;-0.531939
5.370;-1.218628;-0.524913
5.380;-1.217304;-0.516991
5.390;-1.217820;-0.508276
5.400;-1.219904;-0.498641
5.410;-1.223132;-0.487828
5.420;-1.227010;-0.475644
5.430;-1.231042;-0.462206
5.440;-1.234747;-0.448083
5.450;-1.237658;-0.434239
5.460;-1.239345;-0.421749
5.470;-1.239491;-0.411410
5.480;-1.237996;-0.403438
5.490;-1.235031;-0.397368
5.500;-1.231016;-0.392230
5.510;-1.226550;-0.386910
5.520;-1.222301;-0.380561
5.530;-1.218909;-0.372883
5.540;-1.216889;-0.364173
5.550;-1.216564;-0.355125
5.560;-1.218007;-0.346523
5.570;-1.221037;-0.338952
5.580;-1.225259;-0.332666
5.590;-1.230153;-0.327627
5.600;-1.235180;-0.323630
5.610;-1.239856;-0.320441
5.620;-1.243783;-0.317857
5.630;-1.246624;-0.315709
5.640;-1.248088;-0.313823
5.650;-1.247948;-0.312023
5.660;-1.246083;-0.310150
5.670;-1.242538;-0.308105
5.680;-1.237530;-0.305884
5.690;-1.231413;-0.303603
5.700;-1.224620;-0.301525
5.710;-1.217622;-0.300051
5.720;-1.210883;-0.299660
5.730;-1.204808;-0.300763
5.740;-1.199666;-0.303554
5.750;-1.195525;-0.307927
5.760;-1.192232;-0.313517
5.770;-1.189461;-0.319817
5.780;-1.186821;-0.326304
5.790;-1.183990;-0.332524
5.800;-1.180841;-0.338151
5.810;-1.177490;-0.343012
5.820;-1.174235;-0.347075
5.830;-1.171430;-0.350401
5.840;-1.169321;-0.353073
5.850;-1.167950;-0.355151
5.860;-1.167143;-0.356696
5.870;-1.166595;-0.357824
5.880;-1.166012;-0.358736
5.890;-1.165238;-0.359681
5.900;-1.164333;-0.360868
5.910;-1.163577;-0.362368
5.920;-1.163397;-0.364056
5.930;-1.164245;-0.365600
5.940;-1.166469;-0.366537
5.950;-1.170210;-0.366417
5.960;-1.175352;-0.364990
5.970;-1.181511;-0.362348
5.980;-1.188105;-0.358944
5.990;-1.194469;-0.355471
6.000;-1.200002;-0.352640
6.010;-1.204283;-0.350958
6.020;-1.207155;-0.350580
6.030;-1.208751;-0.351310
6.040;-1.209468;-0.352718
6.050;-1.209869;-0.354324
6.060;-1.210524;-0.355787
6.070;-1.211822;-0.357025
6.080;-1.213829;-0.358229
6.090;-1.216255;-0.359760
6.100;-1.218532;-0.361949
6.110;-1.219982;-0.364925
6.120;-1.220005;-0.368542
6.130;-1.218224;-0.372467
6.140;-1.214565;-0.376374
6.150;-1.209231;-0.380116
6.160;-1.202608;-0.383766
6.170;-1.195159;-0.387537
6.180;-1.187324;-0.391629
6.190;-1.179485;-0.396107
6.200;-1.171960;-0.400880
6.210;-1.165036;-0.405761
6.220;-1.159001;-0.410579
6.230;-1.154161;-0.415265
6.240;-1.150820;-0.419881
6.250;-1.149246;-0.424570
6.260;-1.149612;-0.429467
6.270;-1.151921;-0.434593
6.280;-1.155947;-0.439812
6.290;-1.161197;-0.444847
6.300;-1.166952;-0.449374
6.310;-1.172397;-0.453129
6.320;-1.176841;-0.455989
6.330;-1.179937;-0.458014
6.340;-1.181789;-0.459438
6.350;-1.182860;-0.460584
6.360;-1.183708;-0.461722
6.370;-1.184693;-0.462934
6.380;-1.185828;-0.464079
6.390;-1.186848;-0.464885
6.400;-1.187425;-0.465096
6.410;-1.187401;-0.464587
6.420;-1.186907;-0.463384
6.430;-1.186315;-0.461598
6.440;-1.186076;-0.459370
6.450;-1.186538;-0.456850
6.460;-1.187817;-0.454215
6.470;-1.189796;-0.451654
6.480;-1.192253;-0.449303
6.490;-1.195056;-0.447138
6.500;-1.198329;-0.444969
6.510;-1.202510;-0.442535
6.520;-1.208268;-0.439666
6.530;-1.216291;-0.436398
6.540;-1.226992;-0.432962
6.550;-1.240207;-0.429672
6.560;-1.255034;-0.426779
6.570;-1.269917;-0.424365
6.580;-1.283004;-0.422356
6.590;-1.292643;-0.420592
6.600;-1.297835;-0.418926
6.610;-1.298451;-0.417263
6.620;-1.295204;-0.415550
6.630;-1.289417;-0.413696
6.640;-1.282702;-0.411517
6.650;-1.276598;-0.408728
6.660;-1.272219;-0.405017
6.670;-1.270022;-0.400147
6.680;-1.269792;-0.394028
6.690;-1.270878;-0.386712
6.700;-1.272589;-0.378340
6.710;-1.274557;-0.369075
6.720;-1.276931;-0.359065
6.730;-1.280330;-0.348427
6.740;-1.285591;-0.337208
6.750;-1.293420;-0.325334
6.760;-1.304067;-0.312548
6.770;-1.317157;-0.298383
6.780;-1.331754;-0.282210
6.790;-1.346627;-0.263358
6.800;-1.360616;-0.241301
6.810;-1.372960;-0.215860
6.820;-1.383470;-0.187348
6.830;-1.392523;-0.156585
6.840;-1.400906;-0.124749
6.850;-1.409600;-0.093100
6.860;-1.419573;-0.062688
6.870;-1.431601;-0.034146
6.880;-1.446128;-0.007631
6.890;-1.463159;0.017079
6.900;-1.482190;0.040382
6.910;-1.502216;0.062621
6.920;-1.521838;0.083879
6.930;-1.539514;0.103892
6.940;-1.553892;0.122094
6.950;-1.564157;0.137789
6.960;-1.570237;0.150344
6.970;-1.572797;0.159323
6.980;-1.572984;0.164508
6.990;-1.572041;0.165850
7.000;-1.570940;0.163416
7.010;-1.570181;0.157403
7.020;-1.569795;0.148179
7.030;-1.569477;0.136298
7.040;-1.568755;0.122420
7.050;-1.567127;0.107199
7.060;-1.564186;0.091206
7.070;-1.559721;0.074933
7.080;-1.553805;0.058839
7.090;-1.546798;0.043354
7.100;-1.539264;0.028772
7.110;-1.531838;0.015079
7.120;-1.525086;0.001849
7.130;-1.519401;-0.011681
7.140;-1.514936;-0.026350
7.150;-1.511567;-0.042774
7.160;-1.508901;-0.061151
7.170;-1.506362;-0.081259
7.180;-1.503360;-0.102609
7.190;-1.499507;-0.124645
7.200;-1.494759;-0.146905
7.210;-1.489410;-0.169059
7.220;-1.483940;-0.190860
7.230;-1.478793;-0.212054
7.240;-1.474213;-0.232346
7.250;-1.470168;-0.251455
7.260;-1.466383;-0.269184
7.270;-1.462443;-0.285470
7.280;-1.457916;-0.300349
7.290;-1.452450;-0.313898
7.300;-1.445858;-0.326187
7.310;-1.438160;-0.337283
7.320;-1.429580;-0.347309
7.330;-1.420493;-0.356496
7.340;-1.411337;-0.365208
7.350;-1.402493;-0.373889
7.360;-1.394208;-0.382957
7.370;-1.386582;-0.392674
7.380;-1.379619;-0.403035
7.390;-1.373316;-0.413719
7.400;-1.367716;-0.424146
7.410;-1.362906;-0.433638
7.420;-1.358993;-0.441643
7.430;-1.356059;-0.447952
7.440;-1.354145;-0.452795
7.450;-1.353207;-0.456783
7.460;-1.353077;-0.460700
7.470;-1.353427;-0.465247
7.480;-1.353793;-0.470803
7.490;-1.353653;-0.477322
7.500;-1.352545;-0.484398
7.510;-1.350174;-0.491488
7.520;-1.346480;-0.498187
7.530;-1.341647;-0.504426
7.540;-1.336082;-0.510491
7.550;-1.330352;-0.516878
7.560;-1.325074;-0.524059
7.570;-1.320774;-0.532261
7.580;-1.317726;-0.541335
7.590;-1.315874;-0.550727
7.600;-1.314875;-0.559553
7.610;-1.314261;-0.566763
7.620;-1.313654;-0.571366
7.630;-1.312923;-0.572631
7.640;-1.312223;-0.570259
7.650;-1.311904;-0.564460
7.660;-1.312346;-0.555955
7.670;-1.313811;-0.545894
7.680;-1.316327;-0.535699
7.690;-1.319678;-0.526833
7.700;-1.323461;-0.520507
7.710;-1.327238;-0.517403
7.720;-1.330704;-0.517504
7.730;-1.333829;-0.520106
7.740;-1.336888;-0.524045
7.750;-1.340374;-0.528034
7.760;-1.344831;-0.531008
7.770;-1.350705;-0.532340
