Time[s];COPx[cm];COPy[cm]
0.010;-0.381870;0.119509
0.020;-0.370514;0.128246
0.030;-0.359778;0.137318
0.040;-0.350140;0.146960
0.050;-0.341845;0.157261
0.060;-0.334917;0.168146
0.070;-0.329262;0.179411
0.080;-0.324807;0.190779
0.090;-0.321589;0.201936
0.100;-0.319711;0.212550
0.110;-0.319188;0.222270
0.120;-0.319801;0.230743
0.130;-0.321059;0.237641
0.140;-0.322333;0.242686
0.150;-0.323075;0.245657
0.160;-0.322991;0.246407
0.170;-0.322085;0.244935
0.180;-0.320578;0.241491
0.190;-0.318769;0.236640
0.200;-0.316909;0.231216
0.210;-0.315110;0.226148
0.220;-0.313304;0.222229
0.230;-0.311275;0.219912
0.240;-0.308766;0.219200
0.250;-0.305616;0.219696
0.260;-0.301856;0.220786
0.270;-0.297723;0.221890
0.280;-0.293582;0.222655
0.290;-0.289814;0.223021
0.300;-0.286688;0.223159
0.310;-0.284303;0.223316
0.320;-0.282598;0.223672
0.330;-0.281424;0.224237
0.340;-0.280653;0.224829
0.350;-0.280265;0.225120
0.360;-0.280374;0.224723
0.370;-0.281170;0.223298
0.380;-0.282810;0.220597
0.390;-0.285308;0.216468
0.400;-0.288484;0.210810
0.410;-0.292014;0.203572
0.420;-0.295532;0.194808
0.430;-0.298759;0.184787
0.440;-0.301603;0.174028
0.450;-0.304231;0.163213
0.460;-0.307074;0.152988
0.470;-0.310724;0.143769
0.480;-0.315743;0.135655
0.490;-0.322437;0.128464
0.500;-0.330701;0.121876
0.510;-0.340014;0.115585
0.520;-0.349594;0.109411
0.530;-0.358635;0.103348
0.540;-0.366543;0.097497
0.550;-0.373068;0.091941
0.560;-0.378316;0.086602
0.570;-0.382636;0.081180
0.580;-0.386448;0.075249
0.590;-0.390069;0.068476
0.600;-0.393594;0.060833
0.610;-0.396871;0.052653
0.620;-0.399563;0.044502
0.630;-0.401288;0.036948
0.640;-0.401764;0.030333
0.650;-0.400902;0.024646
0.660;-0.398821;0.019531
0.670;-0.395786;0.014389
0.680;-0.392135;0.008550
0.690;-0.388228;0.001427
0.700;-0.384422;-0.007370
0.710;-0.381022;-0.017962
0.720;-0.378213;-0.030167
0.730;-0.376024;-0.043492
0.740;-0.374355;-0.057177
0.750;-0.373075;-0.070289
0.760;-0.372132;-0.081886
0.770;-0.371591;-0.091204
0.780;-0.371569;-0.097843
0.790;-0.372124;-0.101842
0.800;-0.373168;-0.103658
0.810;-0.374502;-0.104059
0.820;-0.375956;-0.103997
0.830;-0.377571;-0.104501
0.840;-0.379710;-0.106552
0.850;-0.383038;-0.110918
0.860;-0.388379;-0.117953
0.870;-0.396495;-0.127447
0.880;-0.407846;-0.138652
0.890;-0.422422;-0.150514
0.900;-0.439702;-0.162040
0.910;-0.458762;-0.172618
0.920;-0.478474;-0.182165
0.930;-0.497714;-0.191019
0.940;-0.515492;-0.199664
0.950;-0.531022;-0.208399
0.960;-0.543762;-0.217135
0.970;-0.553469;-0.225389
0.980;-0.560239;-0.232475
0.990;-0.564494;-0.237799
1.000;-0.566892;-0.241105
1.010;-0.568206;-0.242575
1.020;-0.569207;-0.242736
1.030;-0.570585;-0.242236
1.040;-0.572881;-0.241591
1.050;-0.576393;-0.241010
1.060;-0.581080;-0.240342
1.070;-0.586531;-0.239146
1.080;-0.592088;-0.236838
1.090;-0.597094;-0.232844
1.100;-0.601155;-0.226721
1.110;-0.604252;-0.218274
1.120;-0.606652;-0.207635
1.130;-0.608668;-0.195270
1.140;-0.610434;-0.181849
1.150;-0.611811;-0.168007
1.160;-0.612462;-0.154096
1.170;-0.612014;-0.140065
1.180;-0.610234;-0.125548
1.190;-0.607127;-0.110109
1.200;-0.602940;-0.093534
1.210;-0.598077;-0.076013
1.220;-0.592942;-0.058133
1.230;-0.587753;-0.040700
1.240;-0.582416;-0.024503
1.250;-0.576531;-0.010137
1.260;-0.569558;0.002064
1.270;-0.561068;0.011976
1.280;-0.550958;0.019584
1.290;-0.539547;0.024903
1.300;-0.527510;0.027994
1.310;-0.515684;0.029042
1.320;-0.504827;0.028422
1.330;-0.495411;0.026669
1.340;-0.487518;0.024339
1.350;-0.480886;0.021841
1.360;-0.475086;0.019341
1.370;-0.469750;0.016768
1.380;-0.464749;0.013901
1.390;-0.460234;0.010453
1.400;-0.456506;0.006098
1.410;-0.453820;0.000470
1.420;-0.452208;-0.006831
1.430;-0.451405;-0.016184
1.440;-0.450897;-0.027849
1.450;-0.450033;-0.041842
1.460;-0.448203;-0.057878
1.470;-0.445023;-0.075404
1.480;-0.440462;-0.093738
1.490;-0.434870;-0.112241
1.500;-0.428877;-0.130435
1.510;-0.423222;-0.148043
1.520;-0.418566;-0.164945
1.530;-0.415379;-0.181101
1.540;-0.413899;-0.196490
1.550;-0.414161;-0.211081
1.560;-0.416034;-0.224818
1.570;-0.419226;-0.237615
1.580;-0.423247;-0.249366
1.590;-0.427399;-0.260008
1.600;-0.430845;-0.269630
1.610;-0.432776;-0.278544
1.620;-0.432601;-0.287242
1.630;-0.430068;-0.296214
1.640;-0.425264;-0.305708
1.650;-0.418500;-0.315575
1.660;-0.410156;-0.325301
1.670;-0.400545;-0.334233
1.680;-0.389884;-0.341867
1.690;-0.378330;-0.348065
1.700;-0.366066;-0.353109
1.710;-0.353349;-0.357598
1.720;-0.340485;-0.362242
1.730;-0.327736;-0.367617
1.740;-0.315233;-0.373993
1.750;-0.302974;-0.381299
1.760;-0.290957;-0.389256
1.770;-0.279411;-0.397601
1.780;-0.268997;-0.406295
1.790;-0.260856;-0.415612
1.800;-0.256394;-0.426051
1.810;-0.256842;-0.438100
1.820;-0.262714;-0.451942
1.830;-0.273387;-0.467245
1.840;-0.287041;-0.483154
1.850;-0.301037;-0.498515
1.860;-0.312652;-0.512241
1.870;-0.319883;-0.523694
1.880;-0.322006;-0.532910
1.890;-0.319689;-0.540601
1.900;-0.314629;-0.547909
1.910;-0.308871;-0.555994
1.920;-0.304099;-0.565601
1.930;-0.301130;-0.576784
1.940;-0.299795;-0.588914
1.950;-0.299197;-0.600977
1.960;-0.298214;-0.611998
1.970;-0.296018;-0.621395
1.980;-0.292379;-0.629090
1.990;-0.287662;-0.635393
2.000;-0.282549;-0.640748
2.010;-0.277674;-0.645504
2.020;-0.273349;-0.649821
2.030;-0.269485;-0.653709
2.040;-0.265700;-0.657125
2.050;-0.261543;-0.659994
2.060;-0.256685;-0.662154
2.070;-0.251006;-0.663286
2.080;-0.244560;-0.662939
2.090;-0.237493;-0.660682
2.100;-0.229986;-0.656321
2.110;-0.222280;-0.650056
2.120;-0.214730;-0.642476
2.130;-0.207806;-0.634401
2.140;-0.202002;-0.626641
2.150;-0.197670;-0.619775
2.160;-0.194850;-0.614012
2.170;-0.193181;-0.609192
2.180;-0.191943;-0.604921
2.190;-0.190240;-0.600801
2.200;-0.187253;-0.596679
2.210;-0.182469;-0.592806
2.220;-0.175772;-0.589810
2.230;-0.167399;-0.588512
2.240;-0.157795;-0.589629
2.250;-0.147478;-0.593522
2.260;-0.136937;-0.600074
2.270;-0.126561;-0.608758
2.280;-0.116579;-0.618840
2.290;-0.106998;-0.629622
2.300;-0.097601;-0.640620
2.310;-0.088030;-0.651600
2.320;-0.077954;-0.662496
2.330;-0.067238;-0.673254
2.340;-0.056019;-0.683732
2.350;-0.044638;-0.693683
2.360;-0.033462;-0.702855
2.370;-0.022725;-0.711097
2.380;-0.012492;-0.718373
2.390;-0.002748;-0.724656
2.400;0.006490;-0.729805
2.410;0.015105;-0.733552
2.420;0.022908;-0.735630
2.430;0.029721;-0.735970
2.440;0.035481;-0.734849
2.450;0.040305;-0.732888
2.460;0.044483;-0.730891
2.470;0.048409;-0.729585
2.480;0.052465;-0.729369
2.490;0.056895;-0.730203
2.500;0.061731;-0.731669
2.510;0.066782;-0.733185
2.520;0.071741;-0.734259
2.530;0.076334;-0.734678
2.540;0.080458;-0.734543
2.550;0.084198;-0.734153
2.560;0.087723;-0.733807
2.570;0.091125;-0.733635
2.580;0.094301;-0.733532
2.590;0.096938;-0.733196
2.600;0.098589;-0.732248
2.610;0.098780;-0.730376
2.620;0.097113;-0.727472
2.630;0.093325;-0.723699
2.640;0.087316;-0.719459
2.650;0.079131;-0.715244
2.660;0.068936;-0.711440
2.670;0.057000;-0.708159
2.680;0.043704;-0.705199
2.690;0.029557;-0.702136
2.700;0.015173;-0.698531
2.710;0.001191;-0.694141
2.720;-0.011866;-0.689039
2.730;-0.023746;-0.683600
2.740;-0.034577;-0.678377
2.750;-0.044863;-0.673959
2.760;-0.055353;-0.670843
2.770;-0.066799;-0.669337
2.780;-0.079713;-0.669473
2.790;-0.094208;-0.670948
2.800;-0.109995;-0.673148
2.810;-0.126521;-0.675291
2.820;-0.143162;-0.676685
2.830;-0.159391;-0.676996
2.840;-0.174897;-0.676406
2.850;-0.189646;-0.675570
2.860;-0.203883;-0.675372
2.870;-0.218041;-0.676573
2.880;-0.232575;-0.679471
2.890;-0.247784;-0.683744
2.900;-0.263695;-0.688524
2.910;-0.280032;-0.692689
2.920;-0.296275;-0.695225
2.930;-0.311774;-0.695535
2.940;-0.325903;-0.693569
2.950;-0.338212;-0.689742
2.960;-0.348538;-0.684695
2.970;-0.357048;-0.679026
2.980;-0.364188;-0.673109
2.990;-0.370573;-0.667057
3.000;-0.376824;-0.660813
3.010;-0.383417;-0.654299
3.020;-0.390554;-0.647558
3.030;-0.398117;-0.640813
3.040;-0.405694;-0.634396
3.050;-0.412674;-0.628583
3.060;-0.418389;-0.623425
3.070;-0.422264;-0.618693
3.080;-0.423964;-0.613974
3.090;-0.423493;-0.608861
3.100;-0.421233;-0.603116
3.110;-0.417886;-0.596732
3.120;-0.414329;-0.589870
3.130;-0.411399;-0.582747
3.140;-0.409674;-0.575546
3.150;-0.409341;-0.568382
3.160;-0.410206;-0.561348
3.170;-0.411813;-0.554585
3.180;-0.413630;-0.548330
3.190;-0.415218;-0.542881
3.200;-0.416330;-0.538458
3.210;-0.416925;-0.535041
3.220;-0.417108;-0.532299
3.230;-0.417051;-0.529671
3.240;-0.416929;-0.526583
3.250;-0.416865;-0.522678
3.260;-0.416916;-0.517977
3.270;-0.417083;-0.512890
3.280;-0.417363;-0.508074
3.290;-0.417813;-0.504189
3.300;-0.418586;-0.501638
3.310;-0.419912;-0.500390
3.320;-0.422014;-0.499956
3.330;-0.424981;-0.499541
3.340;-0.428690;-0.498294
3.350;-0.432808;-0.495595
3.360;-0.436885;-0.491270
3.370;-0.440471;-0.485674
3.380;-0.443205;-0.479624
3.390;-0.444862;-0.474186
3.400;-0.445349;-0.470352
3.410;-0.444675;-0.468741
3.420;-0.442926;-0.469413
3.430;-0.440256;-0.471895
3.440;-0.436911;-0.475382
3.450;-0.433236;-0.479008
3.460;-0.429615;-0.482094
3.470;-0.426343;-0.484288
3.480;-0.423480;-0.485583
3.490;-0.420786;-0.486226
3.500;-0.417796;-0.486586
3.510;-0.414027;-0.487012
3.520;-0.409203;-0.487727
3.530;-0.403386;-0.488770
3.540;-0.396937;-0.489991
3.550;-0.390318;-0.491121
3.560;-0.383817;-0.491884
3.570;-0.377338;-0.492127
3.580;-0.370377;-0.491906
3.590;-0.362186;-0.491490
3.600;-0.352065;-0.491279
3.610;-0.339623;-0.491664
3.620;-0.324916;-0.492868
3.630;-0.308393;-0.494824
3.640;-0.290680;-0.497170
3.650;-0.272282;-0.499368
3.660;-0.253354;-0.500903
3.670;-0.233658;-0.501462
3.680;-0.212784;-0.501017
3.690;-0.190540;-0.499784
3.700;-0.167330;-0.498085
3.710;-0.144302;-0.496194
3.720;-0.123164;-0.494229
3.730;-0.105697;-0.492144
3.740;-0.093192;-0.489769
3.750;-0.086069;-0.486887
3.760;-0.083839;-0.483304
3.770;-0.085381;-0.478913
3.780;-0.089386;-0.473751
3.790;-0.094734;-0.468008
3.800;-0.100704;-0.461988
3.810;-0.106976;-0.455995
3.820;-0.113497;-0.450171
3.830;-0.120308;-0.444369
3.840;-0.127426;-0.438145
3.850;-0.134827;-0.430915
3.860;-0.142469;-0.422217
3.870;-0.150343;-0.411934
3.880;-0.158502;-0.400355
3.890;-0.167085;-0.388076
3.900;-0.176322;-0.375777
3.910;-0.186481;-0.364017
3.920;-0.197770;-0.353100
3.930;-0.210238;-0.343064
3.940;-0.223699;-0.333777
3.950;-0.237733;-0.325081
3.960;-0.251757;-0.316903
3.970;-0.265155;-0.309259
3.980;-0.277434;-0.302159
3.990;-0.288332;-0.295495
4.000;-0.297839;-0.288990
4.010;-0.306134;-0.282275
4.020;-0.313470;-0.275056
4.030;-0.320080;-0.267278
4.040;-0.326157;-0.259198
4.050;-0.331860;-0.251300
4.060;-0.337327;-0.244097
4.070;-0.342639;-0.237938
4.080;-0.347786;-0.232906
4.090;-0.352641;-0.228846
4.100;-0.356979;-0.225454
4.110;-0.360547;-0.222352
4.120;-0.363148;-0.219140
4.130;-0.364751;-0.215438
4.140;-0.365579;-0.210948
4.150;-0.366143;-0.205522
4.160;-0.367189;-0.199219
4.170;-0.369531;-0.192287
4.180;-0.373832;-0.185064
4.190;-0.380395;-0.177813
4.200;-0.389049;-0.170601
4.210;-0.399177;-0.163302
4.220;-0.409881;-0.155726
4.230;-0.420229;-0.147796
4.240;-0.429522;-0.139669
4.250;-0.437469;-0.131744
4.260;-0.444218;-0.124539
4.270;-0.450187;-0.118478
4.280;-0.455797;-0.113682
4.290;-0.461247;-0.109858
4.300;-0.466438;-0.106374
4.310;-0.471085;-0.102516
4.320;-0.474919;-0.097818
4.330;-0.477839;-0.092314
4.340;-0.479961;-0.086564
4.350;-0.481543;-0.081449
4.360;-0.482874;-0.077838
4.370;-0.484159;-0.076269
4.380;-0.485445;-0.076776
4.390;-0.486598;-0.078896
4.400;-0.487344;-0.081802
4.410;-0.487370;-0.084517
4.420;-0.486450;-0.086137
4.430;-0.484581;-0.086047
4.440;-0.482063;-0.084050
4.450;-0.479491;-0.080374
4.460;-0.477671;-0.075528
4.470;-0.477466;-0.070076
4.480;-0.479614;-0.064443
4.490;-0.484557;-0.058825
4.500;-0.492320;-0.053204
4.510;-0.502482;-0.047432
4.520;-0.514264;-0.041312
4.530;-0.526704;-0.034658
4.540;-0.538869;-0.027335
4.550;-0.550014;-0.019276
4.560;-0.559636;-0.010468
4.570;-0.567458;-0.000912
4.580;-0.573406;0.009383
4.590;-0.577589;0.020363
4.600;-0.580299;0.031848
4.610;-0.581954;0.043479
4.620;-0.582989;0.054742
4.630;-0.583692;0.065081
4.640;-0.584054;0.074043
4.650;-0.583714;0.081365
4.660;-0.582039;0.086972
4.670;-0.578350;0.090894
4.680;-0.572169;0.093201
4.690;-0.563381;0.093981
4.700;-0.552249;0.093373
4.710;-0.539319;0.091578
4.720;-0.525300;0.088814
4.730;-0.510957;0.085241
4.740;-0.497028;0.080932
4.750;-0.484139;0.075924
4.760;-0.472746;0.070299
4.770;-0.463105;0.064231
4.780;-0.455312;0.057928
4.790;-0.449390;0.051522
4.800;-0.445384;0.044977
4.810;-0.443428;0.038089
4.820;-0.443760;0.030567
4.830;-0.446688;0.022186
4.840;-0.452485;0.012916
4.850;-0.461236;0.002982
4.860;-0.472669;-0.007168
4.870;-0.486070;-0.016960
4.880;-0.500349;-0.025830
4.890;-0.514287;-0.033330
4.900;-0.526880;-0.039203
4.910;-0.537622;-0.043403
4.920;-0.546612;-0.046088
4.930;-0.554409;-0.047596
4.940;-0.561744;-0.048386
4.950;-0.569208;-0.048941
4.960;-0.577047;-0.049630
4.970;-0.585116;-0.050616
4.980;-0.592987;-0.051831
4.990;-0.600149;-0.053030
5.000;-0.606219;-0.053910
5.010;-0.611082;-0.054200
5.020;-0.614924;-0.053712
5.030;-0.618140;-0.052365
5.040;-0.621202;-0.050212
5.050;-0.624512;-0.047510
5.060;-0.628308;-0.044768
5.070;-0.632622;-0.042690
5.080;-0.637306;-0.042000
5.090;-0.642116;-0.043156
5.100;-0.646835;-0.046119
5.110;-0.651369;-0.050260
5.120;-0.655770;-0.054505
5.130;-0.660172;-0.057676
5.140;-0.664679;-0.058909
5.150;-0.669257;-0.057954
5.160;-0.673654;-0.055224
5.170;-0.677399;-0.051579
5.180;-0.679867;-0.047965
5.190;-0.680449;-0.045078
5.200;-0.678755;-0.043170
5.210;-0.674789;-0.042056
5.220;-0.668991;-0.041285
5.230;-0.662149;-0.040408
5.240;-0.655214;-0.039200
5.250;-0.649092;-0.037749
5.260;-0.644472;-0.036384
5.270;-0.641718;-0.035495
5.280;-0.640844;-0.035344
5.290;-0.641580;-0.035931
5.300;-0.643502;-0.036978
5.310;-0.646178;-0.038007
5.320;-0.649275;-0.038464
5.330;-0.652608;-0.037835
5.340;-0.656093;-0.035741
5.350;-0.659661;-0.032020
5.360;-0.663135;-0.026801
5.370;-0.666169;-0.020514
5.380;-0.668280;-0.013824
5.390;-0.668984;-0.007456
5.400;-0.667977;-0.002026
5.410;-0.665281;0.002044
5.420;-0.661289;0.004498
5.430;-0.656662;0.005186
5.440;-0.652133;0.004035
5.450;-0.648289;0.001086
5.460;-0.645444;-0.003475
5.470;-0.643653;-0.009299
5.480;-0.642816;-0.015901
5.490;-0.642811;-0.022722
5.500;-0.643563;-0.029258
5.510;-0.645053;-0.035246
5.520;-0.647291;-0.040815
5.530;-0.650250;-0.046526
5.540;-0.653780;-0.053228
5.550;-0.657551;-0.061772
5.560;-0.661043;-0.072677
5.570;-0.663640;-0.085899
5.580;-0.664811;-0.100790
5.590;-0.664340;-0.116254
5.600;-0.662504;-0.131062
5.610;-0.660079;-0.144200
5.620;-0.658120;-0.155157
5.630;-0.657601;-0.164058
5.640;-0.659049;-0.171600
5.650;-0.662356;-0.178806
5.660;-0.666821;-0.186696
5.670;-0.671399;-0.195980
5.680;-0.675024;-0.206897
5.690;-0.676908;-0.219245
5.700;-0.676717;-0.232568
5.710;-0.674595;-0.246380
5.720;-0.671041;-0.260326
5.730;-0.666732;-0.274226
5.740;-0.662348;-0.288014
5.750;-0.658439;-0.301621
5.760;-0.655334;-0.314883
5.770;-0.653092;-0.327523
5.780;-0.651525;-0.339235
5.790;-0.650292;-0.349805
5.800;-0.649031;-0.359204
5.810;-0.647468;-0.367585
5.820;-0.645448;-0.375174
5.830;-0.642901;-0.382142
5.840;-0.639806;-0.388522
5.850;-0.636210;-0.394234
5.860;-0.632280;-0.399168
5.870;-0.628329;-0.403275
5.880;-0.624755;-0.406602
5.890;-0.621915;-0.409252
5.900;-0.619986;-0.411318
5.910;-0.618923;-0.412849
5.920;-0.618507;-0.413890
5.930;-0.618483;-0.414565
5.940;-0.618682;-0.415155
5.950;-0.619098;-0.416111
5.960;-0.619867;-0.417958
5.970;-0.621196;-0.421164
5.980;-0.623261;-0.426021
5.990;-0.626132;-0.432583
6.000;-0.629731;-0.440681
6.010;-0.633841;-0.449979
6.020;-0.638155;-0.460043
6.030;-0.642370;-0.470388
6.040;-0.646290;-0.480541
6.050;-0.649904;-0.490142
6.060;-0.653425;-0.499067
6.070;-0.657257;-0.507502
6.080;-0.661884;-0.515907
6.090;-0.667714;-0.524855
6.100;-0.674922;-0.534807
6.110;-0.683372;-0.545923
6.120;-0.692659;-0.557975
6.130;-0.702263;-0.570418
6.140;-0.711771;-0.582587
6.150;-0.721024;-0.593932
6.160;-0.730136;-0.604191
6.170;-0.739368;-0.613462
6.180;-0.748944;-0.622149
6.190;-0.758907;-0.630789
6.200;-0.769074;-0.639830
6.210;-0.779089;-0.649455
6.220;-0.788539;-0.659527
6.230;-0.797077;-0.669683
6.240;-0.804497;-0.679489
6.250;-0.810733;-0.688590
6.260;-0.815818;-0.696797
6.270;-0.819821;-0.704133
6.280;-0.822832;-0.710827
6.290;-0.824955;-0.717269
6.300;-0.826334;-0.723903
6.310;-0.827192;-0.731071
6.320;-0.827878;-0.738877
6.330;-0.828872;-0.747146
6.340;-0.830718;-0.755521
6.350;-0.833886;-0.763631
6.360;-0.838627;-0.771232
6.370;-0.844871;-0.778222
6.380;-0.852203;-0.784551
6.390;-0.859904;-0.790133
6.400;-0.867035;-0.794863
6.410;-0.872607;-0.798728
6.420;-0.875830;-0.801918
6.430;-0.876386;-0.804843
6.440;-0.874596;-0.808043
6.450;-0.871335;-0.812059
6.460;-0.867713;-0.817312
6.470;-0.864612;-0.824030
6.480;-0.862329;-0.832190
6.490;-0.860466;-0.841505
6.500;-0.858156;-0.851502
6.510;-0.854488;-0.861676
6.520;-0.848942;-0.871657
6.530;-0.841628;-0.881268
6.540;-0.833263;-0.890478
6.550;-0.824916;-0.899293
6.560;-0.817697;-0.907684
6.570;-0.812485;-0.915605
6.580;-0.809784;-0.923064
6.590;-0.809672;-0.930190
6.600;-0.811828;-0.937225
6.610;-0.815607;-0.944461
6.620;-0.820151;-0.952134
6.630;-0.824548;-0.960319
6.640;-0.828003;-0.968879
6.650;-0.829987;-0.977474
6.660;-0.830342;-0.985631
6.670;-0.829301;-0.992861
6.680;-0.827390;-0.998759
6.690;-0.825242;-1.003089
6.700;-0.823363;-1.005816
6.710;-0.821956;-1.007103
6.720;-0.820885;-1.007252
6.730;-0.819773;-1.006614
6.740;-0.818198;-1.005470
6.750;-0.815889;-1.003925
6.760;-0.812825;-1.001897
6.770;-0.809195;-0.999227
6.780;-0.805229;-0.995871
6.790;-0.800984;-0.992050
6.800;-0.796203;-0.988273
6.810;-0.790328;-0.985203
6.820;-0.782628;-0.983433
6.830;-0.772397;-0.983282
6.840;-0.759110;-0.984687
6.850;-0.742531;-0.987239
6.860;-0.722740;-0.990288
6.870;-0.700080;-0.993068
6.880;-0.675052;-0.994833
6.890;-0.648215;-0.994976
6.900;-0.620106;-0.993132
6.910;-0.591226;-0.989202
6.920;-0.562051;-0.983274
6.930;-0.533035;-0.975471
6.940;-0.504590;-0.965817
6.950;-0.477032;-0.954209
6.960;-0.450525;-0.940494
6.970;-0.425064;-0.924619
6.980;-0.400510;-0.906759
6.990;-0.376645;-0.887371
7.000;-0.353242;-0.867151
7.010;-0.330110;-0.846885
7.020;-0.307109;-0.827283
7.030;-0.284157;-0.808828
7.040;-0.261225;-0.791711
7.050;-0.238358;-0.775818
7.060;-0.215690;-0.760745
7.070;-0.193438;-0.745860
7.080;-0.171861;-0.730464
7.090;-0.151199;-0.714049
7.100;-0.131602;-0.696521
7.110;-0.113097;-0.678257
7.120;-0.095604;-0.659947
7.130;-0.079017;-0.642290
7.140;-0.063297;-0.625725
7.150;-0.048546;-0.610312
7.160;-0.034981;-0.595801
7.170;-0.022830;-0.581844
7.180;-0.012205;-0.568229
7.190;-0.003019;-0.555020
7.200;0.004997;-0.542556
7.210;0.012217;-0.531319
7.220;0.019026;-0.521742
7.230;0.025762;-0.514045
7.240;0.032698;-0.508164
7.250;0.040035;-0.503794
7.260;0.047885;-0.500520
7.270;0.056204;-0.497988
7.280;0.064728;-0.496080
7.290;0.072932;-0.495016
7.300;0.080098;-0.495312
7.310;0.085511;-0.497574
7.320;0.088727;-0.502206
7.330;0.089797;-0.509190
7.340;0.089310;-0.518079
7.350;0.088222;-0.528203
7.360;0.087541;-0.538959
7.370;0.088012;-0.550017
7.380;0.089926;-0.561342
7.390;0.093095;-0.573032
7.400;0.096970;-0.585061
7.410;0.100842;-0.597078
7.420;0.104048;-0.608383
7.430;0.106134;-0.618119
7.440;0.106921;-0.625592
7.450;0.106495;-0.630541
7.460;0.105140;-0.633198
7.470;0.103233;-0.634141
7.480;0.101154;-0.634060
7.490;0.099216;-0.633556
7.500;0.097637;-0.633025
7.510;0.096558;-0.632625
7.520;0.096073;-0.632285
7.530;0.096255;-0.631770
7.540;0.097139;-0.630785
7.550;0.098683;-0.629122
7.560;0.100730;-0.626767
7.570;0.103012;-0.623918
7.580;0.105217;-0.620889
7.590;0.107072;-0.617939
7.600;0.108411;-0.615144
7.610;0.109186;-0.612374
7.620;0.109440;-0.609376
7.630;0.109249;-0.605917
7.640;0.108680;-0.601888
7.650;0.107774;-0.597344
7.660;0.106547;-0.592457
7.670;0.104994;-0.587402
7.680;0.103095;-0.582237
7.690;0.100821;-0.576848
7.700;0.098169;-0.570992
7.710;0.095198;-0.564419
7.720;0.092059;-0.556997
7.730;0.088971;-0.548765
7.740;0.086152;-0.539929
7.750;0.083735;-0.530802
7.760;0.081728;-0.521724
