Time[s];COPx[cm];COPy[cm]
0.010;-1.217983;1.025438
0.020;-1.112371;0.956548
0.030;-1.008775;0.894211
0.040;-0.909194;0.843941
0.050;-0.814838;0.808909
0.060;-0.726032;0.789591
0.070;-0.642394;0.784158
0.080;-0.563213;0.789353
0.090;-0.487878;0.801509
0.100;-0.416214;0.817388
0.110;-0.348629;0.834679
0.120;-0.286053;0.852162
0.130;-0.229707;0.869604
0.140;-0.180779;0.887503
0.150;-0.140067;0.906743
0.160;-0.107714;0.928243
0.170;-0.083131;0.952629
0.180;-0.065128;0.979999
0.190;-0.052190;1.009798
0.200;-0.042801;1.040874
0.210;-0.035698;1.071741
0.220;-0.030021;1.101034
0.230;-0.025338;1.128071
0.240;-0.021558;1.153324
0.250;-0.018745;1.178613
0.260;-0.016913;1.206834
0.270;-0.015910;1.241237
0.280;-0.015464;1.284438
0.290;-0.015398;1.337529
0.300;-0.015879;1.399589
0.310;-0.017567;1.467783
0.320;-0.021542;1.537981
0.330;-0.028991;1.605680
0.340;-0.040770;1.666972
0.350;-0.057059;1.719304
0.360;-0.077258;1.761828
0.370;-0.100197;1.795249
0.380;-0.124583;1.821224
0.390;-0.149491;1.841550
0.400;-0.174714;1.857473
0.410;-0.200839;1.869370
0.420;-0.229044;1.876890
0.430;-0.260683;1.879455
0.440;-0.296771;1.876875
0.450;-0.337492;1.869772
0.460;-0.381839;1.859621
0.470;-0.427579;1.848370
0.480;-0.471641;1.837837
0.490;-0.510944;1.829211
0.500;-0.543382;1.822891
0.510;-0.568527;1.818694
0.520;-0.587724;1.816263
0.530;-0.603511;1.815436
0.540;-0.618670;1.816423
0.550;-0.635353;1.819777
0.560;-0.654659;1.826245
0.570;-0.676753;1.836572
0.580;-0.701393;1.851357
0.590;-0.728584;1.870983
0.600;-0.759058;1.895616
0.610;-0.794394;1.925210
0.620;-0.836719;1.959488
0.630;-0.888078;1.997903
0.640;-0.949682;2.039609
0.650;-1.021321;2.083489
0.660;-1.101142;2.128281
0.670;-1.185951;2.172777
0.680;-1.271965;2.216058
0.690;-1.355832;2.257623
0.700;-1.435554;2.297325
0.710;-1.511000;2.335133
0.720;-1.583817;2.370855
0.730;-1.656804;2.403979
0.740;-1.732979;2.433752
0.750;-1.814669;2.459497
0.760;-1.902887;2.481057
0.770;-1.997096;2.499174
0.780;-2.095320;2.515560
0.790;-2.194451;2.532534
0.800;-2.290610;2.552360
0.810;-2.379542;2.576575
0.820;-2.457088;2.605622
0.830;-2.519796;2.638924
0.840;-2.565607;2.675300
0.850;-2.594405;2.713498
0.860;-2.608125;2.752635
0.870;-2.610306;2.792448
0.880;-2.605180;2.833297
0.890;-2.596631;2.875901
0.900;-2.587359;2.920895
0.910;-2.578526;2.968342
0.920;-2.569941;3.017402
0.930;-2.560593;3.066297
0.940;-2.549286;3.112576
0.950;-2.535098;3.153594
0.960;-2.517593;3.187024
0.970;-2.496814;3.211246
0.980;-2.473177;3.225557
0.990;-2.447337;3.230223
1.000;-2.420050;3.226438
1.010;-2.392035;3.216196
1.020;-2.363837;3.202015
1.030;-2.335722;3.186500
1.040;-2.307632;3.171798
1.050;-2.279240;3.159127
1.060;-2.250100;3.148537
1.070;-2.219859;3.139013
1.080;-2.188474;3.128881
1.090;-2.156373;3.116403
1.100;-2.124457;3.100359
1.110;-2.093930;3.080432
1.120;-2.066014;3.057275
1.130;-2.041675;3.032274
1.140;-2.021499;3.007134
1.150;-2.005735;2.983439
1.160;-1.994437;2.962293
1.170;-1.987583;2.944122
1.180;-1.985110;2.928666
1.190;-1.986864;2.915132
1.200;-1.992550;2.902502
1.210;-2.001774;2.889870
1.220;-2.014216;2.876730
1.230;-2.029888;2.863107
1.240;-2.049345;2.849524
1.250;-2.073726;2.836798
1.260;-2.104521;2.825709
1.270;-2.143112;2.816654
1.280;-2.190212;2.809409
1.290;-2.245363;2.803089
1.300;-2.306659;2.796334
1.310;-2.370782;2.787625
1.320;-2.433439;2.775650
1.330;-2.490159;2.759600
1.340;-2.537307;2.739346
1.350;-2.573002;2.715466
1.360;-2.597555;2.689121
1.370;-2.613219;2.661820
1.380;-2.623324;2.635092
1.390;-2.631176;2.610162
1.400;-2.639139;2.587742
1.410;-2.648193;2.568008
1.420;-2.658039;2.550709
1.430;-2.667568;2.535315
1.440;-2.675460;2.521112
1.450;-2.680652;2.507212
1.460;-2.682569;2.492520
1.470;-2.681128;2.475702
1.480;-2.676577;2.455213
1.490;-2.669316;2.429452
1.500;-2.659767;2.397065
1.510;-2.648332;2.357336
1.520;-2.635375;2.310536
1.530;-2.621209;2.258088
1.540;-2.606032;2.202452
1.550;-2.589886;2.146716
1.560;-2.572666;2.094045
1.570;-2.554237;2.047135
1.580;-2.534614;2.007829
1.590;-2.514107;1.976936
1.600;-2.493348;1.954249
1.610;-2.473181;1.938700
1.620;-2.454457;1.928627
1.630;-2.437847;1.922091
1.640;-2.423751;1.917224
1.650;-2.412343;1.912575
1.660;-2.403687;1.907394
1.670;-2.397830;1.901760
1.680;-2.394790;1.896496
1.690;-2.394447;1.892829
1.700;-2.396416;1.891904
1.710;-2.400011;1.894333
1.720;-2.404341;1.899989
1.730;-2.408544;1.908132
1.740;-2.412059;1.917822
1.750;-2.414814;1.928395
1.760;-2.417235;1.939777
1.770;-2.420104;1.952489
1.780;-2.424328;1.967364
1.790;-2.430717;1.985131
1.800;-2.439827;2.006092
1.810;-2.451896;2.030025
1.820;-2.466849;2.056321
1.830;-2.484346;2.084210
1.840;-2.503872;2.112928
1.850;-2.524881;2.141723
1.860;-2.546993;2.169771
1.870;-2.570231;2.196092
1.880;-2.595178;2.219582
1.890;-2.622947;2.239168
1.900;-2.654880;2.254039
1.910;-2.692023;2.263867
1.920;-2.734543;2.268942
1.930;-2.781358;2.270197
1.940;-2.830148;2.269152
1.950;-2.877803;2.267808
1.960;-2.921155;2.268458
1.970;-2.957770;2.273369
1.980;-2.986536;2.284336
1.990;-3.007859;2.302247
2.000;-3.023460;2.326866
2.010;-3.035855;2.356949
2.020;-3.047705;2.390659
2.030;-3.061152;2.426050
2.040;-3.077316;2.461459
2.050;-3.096064;2.495712
2.060;-3.116127;2.528174
2.070;-3.135540;2.558686
2.080;-3.152237;2.587415
2.090;-3.164598;2.614619
2.100;-3.171792;2.640416
2.110;-3.173860;2.664648
2.120;-3.171564;2.686948
2.130;-3.166051;2.706959
2.140;-3.158381;2.724588
2.150;-3.149044;2.740127
2.160;-3.137601;2.754168
2.170;-3.122669;2.767415
2.180;-3.102299;2.780518
2.190;-3.074674;2.794082
2.200;-3.038787;2.808825
2.210;-2.994777;2.825765
2.220;-2.943729;2.846283
2.230;-2.887063;2.871931
2.240;-2.825830;2.904018
2.250;-2.760235;2.943109
2.260;-2.689569;2.988641
2.270;-2.612524;3.038839
2.280;-2.527771;3.090985
2.290;-2.434572;3.141937
2.300;-2.333242;3.188751
2.310;-2.225274;3.229215
2.320;-2.113092;3.262144
2.330;-1.999518;3.287368
2.340;-1.887168;3.305461
2.350;-1.778024;3.317336
2.360;-1.673290;3.323883
2.370;-1.573509;3.325791
2.380;-1.478803;3.323562
2.390;-1.389088;3.317614
2.400;-1.304177;3.308347
2.410;-1.223761;3.296117
2.420;-1.147342;3.281164
2.430;-1.074201;3.263608
2.440;-1.003475;3.243535
2.450;-0.934313;3.221157
2.460;-0.866046;3.196944
2.470;-0.798299;3.171678
2.480;-0.730985;3.146361
2.490;-0.664221;3.122023
2.500;-0.598221;3.099453
2.510;-0.533216;3.078937
2.520;-0.469436;3.060094
2.530;-0.407126;3.041913
2.540;-0.346568;3.022998
2.550;-0.288076;3.001920
2.560;-0.231958;2.977522
2.570;-0.178497;2.949056
2.580;-0.127960;2.916138
2.590;-0.080619;2.878612
2.600;-0.036789;2.836442
2.610;0.003179;2.789718
2.620;0.038903;2.738735
2.630;0.069998;2.684079
2.640;0.096060;2.626651
2.650;0.116632;2.567576
2.660;0.131180;2.508033
2.670;0.139108;2.449024
2.680;0.139840;2.391168
2.690;0.132930;2.334570
2.700;0.118123;2.278804
2.710;0.095341;2.223046
2.720;0.064633;2.166303
2.730;0.026133;2.107683
2.740;-0.019951;2.046666
2.750;-0.073369;1.983349
2.760;-0.133892;1.918631
2.770;-0.201352;1.854230
2.780;-0.275568;1.792419
2.790;-0.356119;1.735493
2.800;-0.442075;1.685108
2.810;-0.531821;1.641786
2.820;-0.623141;1.604865
2.830;-0.713598;1.572960
2.840;-0.801123;1.544763
2.850;-0.884555;1.519792
2.860;-0.963895;1.498719
2.870;-1.040204;1.483159
2.880;-1.115210;1.475048
2.890;-1.190833;1.475907
2.900;-1.268764;1.486276
2.910;-1.350135;1.505499
2.920;-1.435288;1.531896
2.930;-1.523633;1.563219
2.940;-1.613648;1.597252
2.950;-1.703098;1.632402
2.960;-1.789491;1.668119
2.970;-1.870665;1.705036
2.980;-1.945283;1.744709
2.990;-2.012994;1.788957
3.000;-2.074190;1.839045
3.010;-2.129495;1.895042
3.020;-2.179279;1.955695
3.030;-2.223446;2.018878
3.040;-2.261617;2.082421
3.050;-2.293526;2.144950
3.060;-2.319386;2.206348
3.070;-2.339978;2.267642
3.080;-2.356432;2.330434
3.090;-2.369855;2.396208
3.100;-2.381043;2.465850
3.110;-2.390406;2.539561
3.120;-2.398127;2.617082
3.130;-2.404440;2.698024
3.140;-2.409945;2.782042
3.150;-2.415824;2.868734
3.160;-2.423888;2.957347
3.170;-2.436366;3.046542
3.180;-2.455409;3.134457
3.190;-2.482366;3.219121
3.200;-2.517097;3.299018
3.210;-2.557681;3.373482
3.220;-2.600811;3.442696
3.230;-2.642855;3.507337
3.240;-2.681153;3.568104
3.250;-2.714924;3.625379
3.260;-2.745378;3.679112
3.270;-2.775050;3.728842
3.280;-2.806798;3.773780
3.290;-2.842937;3.812947
3.300;-2.884814;3.845378
3.310;-2.932820;3.870397
3.320;-2.986688;3.887866
3.330;-3.045885;3.898299
3.340;-3.109957;3.902771
3.350;-3.178764;3.902649
3.360;-3.252595;3.899266
3.370;-3.332172;3.893678
3.380;-3.418528;3.886604
3.390;-3.512710;3.878550
3.400;-3.615295;3.869987
3.410;-3.725764;3.861464
3.420;-3.841947;3.853594
3.430;-3.959797;3.846952
3.440;-4.073687;3.841974
3.450;-4.177250;3.838897
3.460;-4.264555;3.837755
3.470;-4.331312;3.838410
3.480;-4.375751;3.840601
3.490;-4.398938;3.843974
3.500;-4.404401;3.848074
3.510;-4.397164;3.852355
3.520;-4.382489;3.856260
3.530;-4.364697;3.859371
3.540;-4.346411;3.861546
3.550;-4.328303;3.862972
3.560;-4.309314;3.864057
3.570;-4.287227;3.865204
3.580;-4.259498;3.866574
3.590;-4.224200;3.867946
3.600;-4.180889;3.868785
3.610;-4.131121;3.868528
3.620;-4.078434;3.866980
3.630;-4.027761;3.864638
3.640;-3.984437;3.862737
3.650;-3.953084;3.862961
3.660;-3.936682;3.866864
3.670;-3.936043;3.875271
3.680;-3.949757;3.887918
3.690;-3.974597;3.903534
3.700;-4.006264;3.920338
3.710;-4.040311;3.936670
3.720;-4.073037;3.951475
3.730;-4.102116;3.964448
3.740;-4.126841;3.975896
3.750;-4.147956;3.986444
3.760;-4.167163;3.996729
3.770;-4.186479;4.007183
3.780;-4.207574;4.017917
3.790;-4.231246;4.028720
3.800;-4.257141;4.039111
3.810;-4.283750;4.048369
3.820;-4.308637;4.055532
3.830;-4.328750;4.059381
3.840;-4.340703;4.058494
3.850;-4.341021;4.051442
3.860;-4.326450;4.037107
3.870;-4.294441;4.015018
3.880;-4.243792;3.985595
3.890;-4.175215;3.950175
3.900;-4.091521;3.910789
3.910;-3.997246;3.869706
3.920;-3.897803;3.828889
3.930;-3.798490;3.789515
3.940;-3.703735;3.751771
3.950;-3.616792;3.714979
3.960;-3.539876;3.678006
3.970;-3.474563;3.639726
3.980;-3.422172;3.599308
3.990;-3.383934;3.556222
4.000;-3.360867;3.510076
4.010;-3.353471;3.460473
4.020;-3.361427;3.407048
4.030;-3.383485;3.349691
4.040;-3.417594;3.288772
4.050;-3.461225;3.225174
4.060;-3.511702;3.160057
4.070;-3.566418;3.094494
4.080;-3.622869;3.029207
4.090;-3.678595;2.964587
4.100;-3.731123;2.900926
4.110;-3.777989;2.838664
4.120;-3.816848;2.778458
4.130;-3.845619;2.720984
4.140;-3.862603;2.666565
4.150;-3.866510;2.614800
4.160;-3.856352;2.564344
4.170;-3.831259;2.512907
4.180;-3.790304;2.457504
4.190;-3.732439;2.394883
4.200;-3.656615;2.322074
4.210;-3.562090;2.236948
4.220;-3.448833;2.138676
4.230;-3.317919;2.027987
4.240;-3.171718;1.907130
4.250;-3.013738;1.779485
4.260;-2.848096;1.648874
4.270;-2.678848;1.518779
4.280;-2.509492;1.391739
4.290;-2.342872;1.269135
4.300;-2.181429;1.151337
4.310;-2.027469;1.038089
4.320;-1.883142;0.928920
4.330;-1.750098;0.823483
4.340;-1.629047;0.721800
4.350;-1.519560;0.624406
4.360;-1.420306;0.532386
4.370;-1.329657;0.447248
4.380;-1.246417;0.370655
4.390;-1.170362;0.304134
4.400;-1.102363;0.248867
4.410;-1.044022;0.205605
4.420;-0.996976;0.174643
4.430;-0.962137;0.155810
4.440;-0.939147;0.148485
4.450;-0.926225;0.151682
4.460;-0.920423;0.164195
4.470;-0.918187;0.184741
4.480;-0.916075;0.212061
4.490;-0.911452;0.244977
4.500;-0.902938;0.282455
4.510;-0.890456;0.323677
4.520;-0.874885;0.368070
4.530;-0.857461;0.415261
4.540;-0.839206;0.464986
4.550;-0.820593;0.516990
4.560;-0.801580;0.570958
4.570;-0.781945;0.626443
4.580;-0.761756;0.682760
4.590;-0.741708;0.738871
4.600;-0.723167;0.793315
4.610;-0.707888;0.844243
4.620;-0.697545;0.889624
4.630;-0.693282;0.927618
4.640;-0.695400;0.957079
4.650;-0.703258;0.977994
4.660;-0.715394;0.991658
4.670;-0.729871;1.000427
4.680;-0.744806;1.007083
4.690;-0.758941;1.014076
4.700;-0.772073;1.022962
4.710;-0.785141;1.034253
4.720;-0.799931;1.047604
4.730;-0.818488;1.062131
4.740;-0.842447;1.076674
4.750;-0.872504;1.089989
4.760;-0.908179;1.100969
4.770;-0.947896;1.108944
4.780;-0.989343;1.114020
4.790;-1.029979;1.117282
4.800;-1.067573;1.120712
4.810;-1.100640;1.126800
4.820;-1.128681;1.137985
4.830;-1.152167;1.156154
4.840;-1.172271;1.182414
4.850;-1.190477;1.217195
4.860;-1.208217;1.260582
4.870;-1.226668;1.312703
4.880;-1.246754;1.373958
4.890;-1.269299;1.444969
4.900;-1.295242;1.526207
4.910;-1.325771;1.617422
4.920;-1.362226;1.717092
4.930;-1.405752;1.822181
4.940;-1.456786;1.928373
4.950;-1.514647;2.030764
4.960;-1.577433;2.124798
4.970;-1.642343;2.207154
4.980;-1.706339;2.276304
4.990;-1.766946;2.332569
5.000;-1.822894;2.377687
5.010;-1.874429;2.414064
5.020;-1.923145;2.444021
5.030;-1.971432;2.469262
5.040;-2.021684;2.490712
5.050;-2.075563;2.508675
5.060;-2.133502;2.523153
5.070;-2.194609;2.534162
5.080;-2.256985;2.541906
5.090;-2.318360;2.546791
5.100;-2.376839;2.549319
5.110;-2.431471;2.549977
5.120;-2.482440;2.549212
5.130;-2.530833;2.547482
5.140;-2.578159;2.545321
5.150;-2.625845;2.543283
5.160;-2.674887;2.541775
5.170;-2.725739;2.540841
5.180;-2.778367;2.540070
5.190;-2.832407;2.538657
5.200;-2.887314;2.535641
5.210;-2.942470;2.530191
5.220;-2.997246;2.521865
5.230;-3.051024;2.510702
5.240;-3.103192;2.497144
5.250;-3.153147;2.481845
5.260;-3.200340;2.465450
5.270;-3.244389;2.448432
5.280;-3.285211;2.430972
5.290;-3.323060;2.412903
5.300;-3.358361;2.393728
5.310;-3.391347;2.372737
5.320;-3.421628;2.349165
5.330;-3.447937;2.322353
5.340;-3.468255;2.291857
5.350;-3.480322;2.257469
5.360;-3.482408;2.219194
5.370;-3.474002;2.177202
5.380;-3.456171;2.131849
5.390;-3.431410;2.083762
5.400;-3.403078;2.033957
5.410;-3.374657;1.983881
5.420;-3.349109;1.935282
5.430;-3.328509;1.889898
5.440;-3.314017;1.849085
5.450;-3.306058;1.813554
5.460;-3.304587;1.783320
5.470;-3.309284;1.757871
5.480;-3.319640;1.736442
5.490;-3.334980;1.718250
5.500;-3.354491;1.702624
5.510;-3.377263;1.689033
5.520;-3.402263;1.677078
5.530;-3.428256;1.666537
5.540;-3.453724;1.657446
5.550;-3.476903;1.650087
5.560;-3.495985;1.644796
5.570;-3.509441;1.641624
5.580;-3.516321;1.640084
5.590;-3.516391;1.639162
5.600;-3.510025;1.637649
5.610;-3.497904;1.634608
5.620;-3.480624;1.629771
5.630;-3.458427;1.623655
5.640;-3.431169;1.617366
5.650;-3.398546;1.612183
5.660;-3.360458;1.609109
5.670;-3.317285;1.608541
5.680;-3.269955;1.610164
5.690;-3.219805;1.613058
5.700;-3.168347;1.615948
5.710;-3.117084;1.617492
5.720;-3.067419;1.616487
5.730;-3.020632;1.611943
5.740;-2.977827;1.603047
5.750;-2.939845;1.589093
5.760;-2.907144;1.569496
5.770;-2.879759;1.543920
5.780;-2.857392;1.512464
5.790;-2.839628;1.475772
5.800;-2.826162;1.434950
5.810;-2.816920;1.391252
5.820;-2.811959;1.345662
5.830;-2.811202;1.298551
5.840;-2.814104;1.249593
5.850;-2.819422;1.197987
5.860;-2.825201;1.142912
5.870;-2.829010;1.084019
5.880;-2.828360;1.021772
5.890;-2.821168;0.957499
5.900;-2.806158;0.893152
5.910;-2.783032;0.830889
5.920;-2.752347;0.772655
5.930;-2.715095;0.719908
5.940;-2.672169;0.673538
5.950;-2.623940;0.633904
5.960;-2.570169;0.600923
5.970;-2.510259;0.574188
5.980;-2.443673;0.553116
5.990;-2.370243;0.537111
6.000;-2.290150;0.525706
6.010;-2.203625;0.518650
6.020;-2.110610;0.515913
6.030;-2.010684;0.517636
6.040;-1.903371;0.524064
6.050;-1.788695;0.535481
6.060;-1.667640;0.552151
6.070;-1.542203;0.574245
6.080;-1.414952;0.601746
6.090;-1.288331;0.634355
6.100;-1.164064;0.671459
6.110;-1.042932;0.712225
6.120;-0.924935;0.755824
6.130;-0.809648;0.801712
6.140;-0.696577;0.849834
6.150;-0.585357;0.900623
6.160;-0.475839;0.954771
6.170;-0.368115;1.012825
6.180;-0.262540;1.074773
6.190;-0.159732;1.139749
6.200;-0.060474;1.205980
6.210;0.034446;1.270972
6.220;0.124371;1.331915
6.230;0.208808;1.386210
6.240;0.287318;1.432029
6.250;0.359363;1.468766
6.260;0.424221;1.497228
6.270;0.481011;1.519486
6.280;0.528786;1.538395
6.290;0.566621;1.556922
6.300;0.593653;1.577496
6.310;0.609109;1.601554
6.320;0.612369;1.629430
6.330;0.603124;1.660506
6.340;0.581586;1.693511
6.350;0.548669;1.726831
6.360;0.506018;1.758787
6.370;0.455829;1.787891
6.380;0.400504;1.813059
6.390;0.342252;1.833727
6.400;0.282817;1.849781
6.410;0.223377;1.861369
6.420;0.164604;1.868718
6.430;0.106755;1.872055
6.440;0.049768;1.871627
6.450;-0.006639;1.867709
6.460;-0.062787;1.860523
6.470;-0.118813;1.850086
6.480;-0.174484;1.836099
6.490;-0.229201;1.817967
6.500;-0.282216;1.795010
6.510;-0.332970;1.766779
6.520;-0.381389;1.733403
6.530;-0.428015;1.695855
6.540;-0.473980;1.656032
6.550;-0.520911;1.616606
6.560;-0.570845;1.580655
6.570;-0.626171;1.551170
6.580;-0.689491;1.530571
6.590;-0.763297;1.520379
6.600;-0.849420;1.521102
6.610;-0.948401;1.532322
6.620;-1.059047;1.552901
6.630;-1.178470;1.581229
6.640;-1.302720;1.615459
6.650;-1.427827;1.653743
6.660;-1.550849;1.694467
6.670;-1.670481;1.736458
6.680;-1.787007;1.779115
6.690;-1.901689;1.822374
6.700;-2.015876;1.866542
6.710;-2.130159;1.912064
6.720;-2.243828;1.959347
6.730;-2.354727;2.008648
6.740;-2.459561;2.059983
6.750;-2.554600;2.113014
6.760;-2.636636;2.166920
6.770;-2.703886;2.220376
6.780;-2.756539;2.271710
6.790;-2.796722;2.319241
6.800;-2.827918;2.361685
6.810;-2.854096;2.398457
6.820;-2.878843;2.429785
6.830;-2.904685;2.456601
6.840;-2.932684;2.480250
6.850;-2.962314;2.502090
6.860;-2.991650;2.523074
6.870;-3.017887;2.543443
6.880;-3.038158;2.562648
6.890;-3.050473;2.579575
6.900;-3.054458;2.592982
6.910;-3.051569;2.601996
6.920;-3.044649;2.606465
6.930;-3.036995;2.607034
6.940;-3.031354;2.604917
6.950;-3.029229;2.601480
6.960;-3.030725;2.597805
6.970;-3.034891;2.594407
6.980;-3.040324;2.591156
6.990;-3.045757;2.587387
7.000;-3.050457;2.582100
7.010;-3.054351;2.574231
7.020;-3.057932;2.562944
7.030;-3.062062;2.547879
7.040;-3.067747;2.529259
7.050;-3.075944;2.507845
7.060;-3.087385;2.484780
7.070;-3.102443;2.461399
7.080;-3.121044;2.439003
7.090;-3.142686;2.418599
7.100;-3.166602;2.400635
7.110;-3.192059;2.384850
7.120;-3.218703;2.370346
7.130;-3.246835;2.355888
7.140;-3.277511;2.340326
7.150;-3.312433;2.322954
7.160;-3.353599;2.303704
7.170;-3.402806;2.283108
7.180;-3.461091;2.262139
7.190;-3.528288;2.241999
7.200;-3.602854;2.223952
7.210;-3.682042;2.209225
7.220;-3.762379;2.198963
7.230;-3.840302;2.194173
7.240;-3.912753;2.195586
7.250;-3.977564;2.203454
7.260;-4.033553;2.217398
7.270;-4.080330;2.236408
7.280;-4.117995;2.259065
7.290;-4.146923;2.283879
7.300;-4.167761;2.309611
7.310;-4.181626;2.335408
7.320;-4.190280;2.360707
7.330;-4.196101;2.384994
7.340;-4.201769;2.407586
7.350;-4.209781;2.427555
7.360;-4.222035;2.443836
7.370;-4.239656;2.455420
7.380;-4.263120;2.461547
7.390;-4.292543;2.461789
7.400;-4.327924;2.456026
7.410;-4.369132;2.444371
7.420;-4.415649;2.427115
7.430;-4.466218;2.404723
7.440;-4.518672;2.377834
7.450;-4.570113;2.347247
7.460;-4.617395;2.313864
7.470;-4.657716;2.278669
7.480;-4.689053;2.242741
7.490;-4.710300;2.207245
7.500;-4.721091;2.173332
7.510;-4.721458;2.141911
7.520;-4.711510;2.113418
7.530;-4.691302;2.087738
7.540;-4.660895;2.064377
7.550;-4.620551;2.042845
7.560;-4.570888;2.023051
7.570;-4.512906;2.005482
7.580;-4.447859;1.991024
7.590;-4.377077;1.980476
7.600;-4.301853;1.973963
7.610;-4.223468;1.970522
7.620;-4.143287;1.968064
7.630;-4.062815;1.963748
7.640;-3.983617;1.954627
7.650;-3.907131;1.938308
7.660;-3.834423;1.913374
7.670;-3.765956;1.879433
7.680;-3.701387;1.836827
7.690;-3.639469;1.786226
7.700;-3.578170;1.728341
7.710;-3.515145;1.663900
7.720;-3.448500;1.593799
7.730;-3.377607;1.519253
7.740;-3.303550;1.441800
7.750;-3.228927;1.363144
7.760;-3.157027;1.284980
7.770;-3.090664;1.208887
7.780;-3.031157;1.136331
7.790;-2.977828;1.068640
7.800;-2.928218;1.006899
7.810;-2.878924;0.951761
7.820;-2.826715;0.903304
7.830;-2.769510;0.861030
7.840;-2.706898;0.824055
7.850;-2.640061;0.791372
7.860;-2.571232;0.762080
7.870;-2.502931;0.735507
7.880;-2.437266;0.711235
7.890;-2.375485;0.689094
7.900;-2.317812;0.669179
7.910;-2.263519;0.651905
7.920;-2.211168;0.637987
7.930;-2.158960;0.628292
7.940;-2.105102;0.623520
7.950;-2.048139;0.623837
7.960;-1.987125;0.628610
7.970;-1.921570;0.636396
7.980;-1.851190;0.645167
7.990;-1.775611;0.652675
8.000;-1.694238;0.656838
