Time[s];COPx[cm];COPy[cm]
0.010;-1.472129;0.520649
0.020;-1.481544;0.513042
0.030;-1.489676;0.505735
0.040;-1.495599;0.499009
0.050;-1.499013;0.493133
0.060;-1.500205;0.488395
0.070;-1.499810;0.485089
0.080;-1.498492;0.483428
0.090;-1.496698;0.483423
0.100;-1.494574;0.484786
0.110;-1.492050;0.486933
0.120;-1.489013;0.489112
0.130;-1.485445;0.490603
0.140;-1.481471;0.490921
0.150;-1.477295;0.489944
0.160;-1.473081;0.487911
0.170;-1.468820;0.485301
0.180;-1.464290;0.482628
0.190;-1.459111;0.480258
0.200;-1.452881;0.478318
0.210;-1.445320;0.476716
0.220;-1.436345;0.475235
0.230;-1.426066;0.473621
0.240;-1.414726;0.471630
0.250;-1.402654;0.469072
0.260;-1.390267;0.465882
0.270;-1.378075;0.462185
0.280;-1.366643;0.458324
0.290;-1.356435;0.454806
0.300;-1.347623;0.452207
0.310;-1.339973;0.451068
0.320;-1.332900;0.451779
0.330;-1.325697;0.454443
0.340;-1.317820;0.458741
0.350;-1.309081;0.463914
0.360;-1.299670;0.468930
0.370;-1.290032;0.472830
0.380;-1.280689;0.475108
0.390;-1.272079;0.475919
0.400;-1.264473;0.476002
0.410;-1.257936;0.476356
0.420;-1.252326;0.477826
0.430;-1.247320;0.480822
0.440;-1.242479;0.485258
0.450;-1.237370;0.490685
0.460;-1.231709;0.496486
0.470;-1.225460;0.502033
0.480;-1.218832;0.506765
0.490;-1.212151;0.510251
0.500;-1.205683;0.512292
0.510;-1.199508;0.513030
0.520;-1.193545;0.512999
0.530;-1.187680;0.513032
0.540;-1.181918;0.514035
0.550;-1.176446;0.516721
0.560;-1.171576;0.521392
0.570;-1.167610;0.527847
0.580;-1.164718;0.535423
0.590;-1.162894;0.543176
0.600;-1.162013;0.550135
0.610;-1.161944;0.555574
0.620;-1.162637;0.559193
0.630;-1.164117;0.561124
0.640;-1.166394;0.561802
0.650;-1.169375;0.561759
0.660;-1.172845;0.561476
0.670;-1.176566;0.561311
0.680;-1.180376;0.561510
0.690;-1.184251;0.562235
0.700;-1.188280;0.563557
0.710;-1.192594;0.565414
0.720;-1.197284;0.567566
0.730;-1.202321;0.569615
0.740;-1.207516;0.571099
0.750;-1.212544;0.571628
0.760;-1.217058;0.571005
0.770;-1.220867;0.569287
0.780;-1.224094;0.566783
0.790;-1.227228;0.563980
0.800;-1.230994;0.561419
0.810;-1.236101;0.559516
0.820;-1.242962;0.558396
0.830;-1.251539;0.557805
0.840;-1.261361;0.557182
0.850;-1.271697;0.555892
0.860;-1.281795;0.553553
0.870;-1.291081;0.550259
0.880;-1.299269;0.546572
0.890;-1.306339;0.543271
0.900;-1.312437;0.540993
0.910;-1.317755;0.539985
0.920;-1.322475;0.540056
0.930;-1.326765;0.540709
0.940;-1.330821;0.541358
0.950;-1.334898;0.541503
0.960;-1.339297;0.540844
0.970;-1.344301;0.539322
0.980;-1.350078;0.537078
0.990;-1.356605;0.534359
1.000;-1.363656;0.531386
1.010;-1.370877;0.528238
1.020;-1.377913;0.524804
1.030;-1.384517;0.520830
1.040;-1.390590;0.516082
1.050;-1.396134;0.510549
1.060;-1.401190;0.504583
1.070;-1.405830;0.498851
1.080;-1.410185;0.494113
1.090;-1.414470;0.490902
1.100;-1.418921;0.489270
1.110;-1.423685;0.488738
1.120;-1.428726;0.488473
1.130;-1.433791;0.487625
1.140;-1.438479;0.485653
1.150;-1.442346;0.482517
1.160;-1.445034;0.478678
1.170;-1.446341;0.474896
1.180;-1.446258;0.471936
1.190;-1.444962;0.470288
1.200;-1.442779;0.470034
1.210;-1.440116;0.470883
1.220;-1.437358;0.472321
1.230;-1.434763;0.473792
1.240;-1.432405;0.474848
1.250;-1.430205;0.475224
1.260;-1.428022;0.474858
1.270;-1.425736;0.473876
1.280;-1.423291;0.472556
1.290;-1.420665;0.471275
1.300;-1.417820;0.470429
1.310;-1.414658;0.470327
1.320;-1.411021;0.471078
1.330;-1.406728;0.472514
1.340;-1.401620;0.474190
1.350;-1.395607;0.475481
1.360;-1.388696;0.475752
1.370;-1.381031;0.474559
1.380;-1.372921;0.471782
1.390;-1.364865;0.467648
1.400;-1.357517;0.462639
1.410;-1.351592;0.457362
1.420;-1.347727;0.452409
1.430;-1.346343;0.448268
1.440;-1.347534;0.445268
1.450;-1.350990;0.443593
1.460;-1.356014;0.443285
1.470;-1.361674;0.444222
1.480;-1.367079;0.446098
1.490;-1.371679;0.448437
1.500;-1.375438;0.450712
1.510;-1.378782;0.452493
1.520;-1.382344;0.453572
1.530;-1.386638;0.453989
1.540;-1.391837;0.453958
1.550;-1.397746;0.453750
1.560;-1.403942;0.453594
1.570;-1.409980;0.453638
1.580;-1.415546;0.453963
1.590;-1.420529;0.454612
1.600;-1.425024;0.455585
1.610;-1.429295;0.456820
1.620;-1.433715;0.458173
1.630;-1.438673;0.459451
1.640;-1.444456;0.460484
1.650;-1.451158;0.461216
1.660;-1.458686;0.461734
1.670;-1.466865;0.462208
1.680;-1.475557;0.462759
1.690;-1.484710;0.463347
1.700;-1.494299;0.463768
1.710;-1.504183;0.463744
1.720;-1.514014;0.463061
1.730;-1.523262;0.461664
1.740;-1.531381;0.459684
1.750;-1.538010;0.457394
1.760;-1.543112;0.455147
1.770;-1.546965;0.453293
1.780;-1.550063;0.452090
1.790;-1.552969;0.451630
1.800;-1.556225;0.451798
1.810;-1.560307;0.452331
1.820;-1.565620;0.452938
1.830;-1.572459;0.453406
1.840;-1.580957;0.453611
1.850;-1.591050;0.453474
1.860;-1.602490;0.452914
1.870;-1.614900;0.451887
1.880;-1.627842;0.450470
1.890;-1.640866;0.448922
1.900;-1.653539;0.447662
1.910;-1.665472;0.447119
1.920;-1.676349;0.447532
1.930;-1.685987;0.448781
1.940;-1.694389;0.450368
1.950;-1.701768;0.451560
1.960;-1.708485;0.451657
1.970;-1.714933;0.450239
1.980;-1.721389;0.447283
1.990;-1.727907;0.443103
2.000;-1.734289;0.438180
2.010;-1.740164;0.432971
2.020;-1.745133;0.427795
2.030;-1.748916;0.422799
2.040;-1.751453;0.418001
2.050;-1.752902;0.413357
2.060;-1.753573;0.408816
2.070;-1.753847;0.404328
2.080;-1.754112;0.399788
2.090;-1.754717;0.394968
2.100;-1.755950;0.389526
2.110;-1.758006;0.383099
2.120;-1.760964;0.375464
2.130;-1.764764;0.366646
2.140;-1.769210;0.356933
2.150;-1.773997;0.346790
2.160;-1.778762;0.336727
2.170;-1.783148;0.327166
2.180;-1.786857;0.318334
2.190;-1.789724;0.310214
2.200;-1.791783;0.302537
2.210;-1.793298;0.294835
2.220;-1.794705;0.286581
2.230;-1.796452;0.277399
2.240;-1.798828;0.267291
2.250;-1.801861;0.256759
2.260;-1.805379;0.246725
2.270;-1.809148;0.238260
2.280;-1.813033;0.232253
2.290;-1.817047;0.229153
2.300;-1.821292;0.228900
2.310;-1.825823;0.231013
2.320;-1.830517;0.234747
2.330;-1.835013;0.239262
2.340;-1.838771;0.243753
2.350;-1.841227;0.247573
2.360;-1.841997;0.250338
2.370;-1.841051;0.251990
2.380;-1.838778;0.252771
2.390;-1.835879;0.253130
2.400;-1.833100;0.253572
2.410;-1.830927;0.254526
2.420;-1.829373;0.256282
2.430;-1.827986;0.258982
2.440;-1.826058;0.262647
2.450;-1.822924;0.267189
2.460;-1.818223;0.272394
2.470;-1.812008;0.277933
2.480;-1.804720;0.283409
2.490;-1.797044;0.288478
2.500;-1.789705;0.292963
2.510;-1.783261;0.296933
2.520;-1.777966;0.300671
2.530;-1.773736;0.304552
2.540;-1.770239;0.308897
2.550;-1.767056;0.313900
2.560;-1.763844;0.319659
2.570;-1.760420;0.326234
2.580;-1.756771;0.333665
2.590;-1.752964;0.341932
2.600;-1.749040;0.350899
2.610;-1.744921;0.360307
2.620;-1.740414;0.369831
2.630;-1.735288;0.379155
2.640;-1.729396;0.388044
2.650;-1.722768;0.396374
2.660;-1.715650;0.404141
2.670;-1.708472;0.411459
2.680;-1.701780;0.418561
2.690;-1.696157;0.425780
2.700;-1.692136;0.433480
2.710;-1.690120;0.441922
2.720;-1.690306;0.451129
2.730;-1.692638;0.460839
2.740;-1.696808;0.470609
2.750;-1.702322;0.480002
2.760;-1.708635;0.488758
2.770;-1.715309;0.496816
2.780;-1.722143;0.504219
2.790;-1.729221;0.510948
2.800;-1.736837;0.516797
2.810;-1.745363;0.521367
2.820;-1.755086;0.524178
2.830;-1.766101;0.524866
2.840;-1.778263;0.523366
2.850;-1.791202;0.519967
2.860;-1.804373;0.515203
2.870;-1.817141;0.509628
2.880;-1.828889;0.503592
2.890;-1.839123;0.497141
2.900;-1.847559;0.490062
2.910;-1.854170;0.482039
2.920;-1.859176;0.472819
2.930;-1.862969;0.462328
2.940;-1.866006;0.450718
2.950;-1.868685;0.438345
2.960;-1.871268;0.425720
2.970;-1.873844;0.413431
2.980;-1.876349;0.402036
2.990;-1.878634;0.391947
3.000;-1.880583;0.383350
3.010;-1.882212;0.376216
3.020;-1.883718;0.370408
3.030;-1.885420;0.365797
3.040;-1.887653;0.362313
3.050;-1.890649;0.359918
3.060;-1.894470;0.358565
3.070;-1.899016;0.358159
3.080;-1.904097;0.358528
3.090;-1.909551;0.359400
3.100;-1.915326;0.360402
3.110;-1.921481;0.361125
3.120;-1.928125;0.361235
3.130;-1.935321;0.360569
3.140;-1.943019;0.359165
3.150;-1.951018;0.357204
3.160;-1.958962;0.354935
3.170;-1.966388;0.352607
3.180;-1.972806;0.350455
3.190;-1.977798;0.348712
3.200;-1.981087;0.347601
3.210;-1.982577;0.347288
3.220;-1.982353;0.347797
3.230;-1.980667;0.348964
3.240;-1.977905;0.350473
3.250;-1.974523;0.351965
3.260;-1.970960;0.353166
3.270;-1.967542;0.353950
3.280;-1.964415;0.354324
3.290;-1.961535;0.354365
3.300;-1.958729;0.354175
3.310;-1.955813;0.353854
3.320;-1.952733;0.353510
3.330;-1.949659;0.353264
3.340;-1.946991;0.353260
3.350;-1.945246;0.353661
3.360;-1.944879;0.354606
3.370;-1.946136;0.356134
3.380;-1.948989;0.358150
3.390;-1.953158;0.360461
3.400;-1.958194;0.362865
3.410;-1.963585;0.365221
3.420;-1.968868;0.367457
3.430;-1.973699;0.369541
3.440;-1.977870;0.371447
3.450;-1.981265;0.373133
3.460;-1.983803;0.374555
3.470;-1.985399;0.375704
3.480;-1.985948;0.376630
3.490;-1.985328;0.377419
3.500;-1.983423;0.378141
3.510;-1.980166;0.378832
3.520;-1.975612;0.379504
3.530;-1.969995;0.380185
3.540;-1.963755;0.380913
3.550;-1.957475;0.381703
3.560;-1.951745;0.382506
3.570;-1.946988;0.383214
3.580;-1.943318;0.383710
3.590;-1.940507;0.383924
3.600;-1.938085;0.383859
3.610;-1.935544;0.383589
3.620;-1.932561;0.383245
3.630;-1.929148;0.383004
3.640;-1.925672;0.383074
3.650;-1.922737;0.383660
3.660;-1.920996;0.384917
3.670;-1.920981;0.386891
3.680;-1.923035;0.389476
3.690;-1.927331;0.392405
3.700;-1.933905;0.395310
3.710;-1.942652;0.397858
3.720;-1.953265;0.399926
3.730;-1.965216;0.401713
3.740;-1.977838;0.403712
3.750;-1.990472;0.406530
3.760;-2.002590;0.410624
3.770;-2.013813;0.416066
3.780;-2.023851;0.422464
3.790;-2.032478;0.429087
3.800;-2.039598;0.435157
3.810;-2.045362;0.440170
3.820;-2.050218;0.444085
3.830;-2.054809;0.447306
3.840;-2.059743;0.450498
3.850;-2.065364;0.454333
3.860;-2.071643;0.459302
3.870;-2.078238;0.465628
3.880;-2.084674;0.473259
3.890;-2.090544;0.481918
3.900;-2.095648;0.491178
3.910;-2.100015;0.500571
3.920;-2.103789;0.509697
3.930;-2.107073;0.518293
3.940;-2.109843;0.526264
3.950;-2.111980;0.533661
3.960;-2.113374;0.540627
3.970;-2.114019;0.547309
3.980;-2.114036;0.553808
3.990;-2.113616;0.560155
4.000;-2.112928;0.566334
4.010;-2.112036;0.572298
4.020;-2.110879;0.577975
4.030;-2.109322;0.583266
4.040;-2.107256;0.588063
4.050;-2.104704;0.592302
4.060;-2.101858;0.596041
4.070;-2.099056;0.599497
4.080;-2.096674;0.603027
4.090;-2.095010;0.607011
4.100;-2.094207;0.611698
4.110;-2.094241;0.617085
4.120;-2.094982;0.622882
4.130;-2.096322;0.628607
4.140;-2.098278;0.633758
4.150;-2.101026;0.637970
4.160;-2.104814;0.641087
4.170;-2.109814;0.643145
4.180;-2.116006;0.644328
4.190;-2.123153;0.644943
4.200;-2.130856;0.645401
4.210;-2.138638;0.646176
4.220;-2.146019;0.647700
4.230;-2.152588;0.650238
4.240;-2.158065;0.653779
4.250;-2.162335;0.658001
4.260;-2.165453;0.662316
4.270;-2.167632;0.666009
4.280;-2.169213;0.668426
4.290;-2.170607;0.669172
4.300;-2.172184;0.668218
4.310;-2.174124;0.665885
4.320;-2.176310;0.662686
4.330;-2.178314;0.659107
4.340;-2.179550;0.655423
4.350;-2.179518;0.651638
4.360;-2.178051;0.647574
4.370;-2.175404;0.643048
4.380;-2.172128;0.638022
4.390;-2.168769;0.632651
4.400;-2.165581;0.627207
4.410;-2.162368;0.621957
4.420;-2.158552;0.617040
4.430;-2.153412;0.612394
4.440;-2.146389;0.607768
4.450;-2.137320;0.602853
4.460;-2.126506;0.597459
4.470;-2.114618;0.591653
4.480;-2.102476;0.585743
4.490;-2.090828;0.580118
4.500;-2.080162;0.575006
4.510;-2.070628;0.570281
4.520;-2.062064;0.565454
4.530;-2.054118;0.559854
4.540;-2.046407;0.552903
4.550;-2.038639;0.544353
4.560;-2.030663;0.534394
4.570;-2.022446;0.523620
4.580;-2.014019;0.512871
4.590;-2.005421;0.502964
4.600;-1.996664;0.494431
4.610;-1.987716;0.487361
4.620;-1.978509;0.481436
4.630;-1.968977;0.476146
4.640;-1.959111;0.471066
4.650;-1.948999;0.466036
4.660;-1.938838;0.461183
4.670;-1.928908;0.456782
4.680;-1.919512;0.453107
4.690;-1.910923;0.450329
4.700;-1.903333;0.448533
4.710;-1.896821;0.447786
4.720;-1.891346;0.448199
4.730;-1.886776;0.449918
4.740;-1.882943;0.453026
4.750;-1.879702;0.457441
4.760;-1.876939;0.462881
4.770;-1.874547;0.468981
4.780;-1.872370;0.475472
4.790;-1.870180;0.482334
4.800;-1.867693;0.489820
4.810;-1.864631;0.498336
4.820;-1.860813;0.508235
4.830;-1.856231;0.519637
4.840;-1.851077;0.532331
4.850;-1.845723;0.545800
4.860;-1.840646;0.559350
4.870;-1.836316;0.572315
4.880;-1.833063;0.584267
4.890;-1.830977;0.595165
4.900;-1.829880;0.605395
4.910;-1.829394;0.615681
4.920;-1.829087;0.626879
4.930;-1.828626;0.639716
4.940;-1.827895;0.654571
4.950;-1.827005;0.671362
4.960;-1.826215;0.689583
4.970;-1.825803;0.708457
4.980;-1.825954;0.727116
4.990;-1.826741;0.744746
5.000;-1.828195;0.760643
5.010;-1.830407;0.774232
5.020;-1.833581;0.785066
5.030;-1.837976;0.792874
5.040;-1.843742;0.797646
5.050;-1.850735;0.799680
5.060;-1.858424;0.799552
5.070;-1.865948;0.797996
5.080;-1.872311;0.795740
5.090;-1.876678;0.793359
5.100;-1.878624;0.791193
5.110;-1.878267;0.789332
5.120;-1.876196;0.787672
5.130;-1.873229;0.786004
5.140;-1.870103;0.784105
5.150;-1.867235;0.781815
5.160;-1.864624;0.779093
5.170;-1.861927;0.776048
5.180;-1.858637;0.772909
5.190;-1.854299;0.769907
5.200;-1.848660;0.767121
5.210;-1.841702;0.764395
5.220;-1.833533;0.761357
5.230;-1.824227;0.757569
5.240;-1.813712;0.752698
5.250;-1.801809;0.746661
5.260;-1.788399;0.739656
5.270;-1.773629;0.732091
5.280;-1.758025;0.724437
5.290;-1.742448;0.717087
5.300;-1.727906;0.710231
5.310;-1.715287;0.703766
5.320;-1.705116;0.697267
5.330;-1.697413;0.690059
5.340;-1.691697;0.681425
5.350;-1.687125;0.670878
5.360;-1.682738;0.658370
5.370;-1.677728;0.644322
5.380;-1.671657;0.629459
5.390;-1.664542;0.614523
5.400;-1.656782;0.600033
5.410;-1.648955;0.586206
5.420;-1.641602;0.573061
5.430;-1.635064;0.560620
5.440;-1.629443;0.549073
5.450;-1.624651;0.538805
5.460;-1.620527;0.530275
5.470;-1.616946;0.523815
5.480;-1.613897;0.519450
5.490;-1.611495;0.516846
5.500;-1.609926;0.515402
5.510;-1.609363;0.514434
5.520;-1.609878;0.513369
5.530;-1.611389;0.511850
5.540;-1.613674;0.509768
5.550;-1.616421;0.507199
5.560;-1.619294;0.504341
5.570;-1.622004;0.501465
5.580;-1.624359;0.498901
5.590;-1.626319;0.497015
5.600;-1.628016;0.496118
5.610;-1.629732;0.496315
5.620;-1.631801;0.497395
5.630;-1.634467;0.498851
5.640;-1.637762;0.500055
5.650;-1.641478;0.500479
5.660;-1.645251;0.499836
5.670;-1.648711;0.498093
5.680;-1.651623;0.495355
5.690;-1.653945;0.491740
5.700;-1.655795;0.487300
5.710;-1.657358;0.482053
5.720;-1.658791;0.476074
5.730;-1.660168;0.469609
5.740;-1.661467;0.463088
5.750;-1.662594;0.457018
5.760;-1.663425;0.451794
5.770;-1.663852;0.447533
5.780;-1.663824;0.444073
5.790;-1.663389;0.441109
5.800;-1.662729;0.438369
5.810;-1.662200;0.435724
5.820;-1.662274;0.433153
5.830;-1.663352;0.430612
5.840;-1.665524;0.427939
5.850;-1.668411;0.424870
5.860;-1.671256;0.421183
5.870;-1.673241;0.416842
5.880;-1.673843;0.412056
5.890;-1.673022;0.407203
5.900;-1.671159;0.402672
5.910;-1.668795;0.398698
5.920;-1.666342;0.395266
5.930;-1.663894;0.392119
5.940;-1.661228;0.388863
5.950;-1.657957;0.385107
5.960;-1.653763;0.380600
5.970;-1.648604;0.375305
5.980;-1.642811;0.369407
5.990;-1.637014;0.363253
6.000;-1.631911;0.357234
6.010;-1.627979;0.351659
6.020;-1.625275;0.346659
6.030;-1.623440;0.342187
6.040;-1.621902;0.338099
6.050;-1.620177;0.334259
6.060;-1.618090;0.330569
6.070;-1.615808;0.326923
6.080;-1.613687;0.323140
6.090;-1.612049;0.318968
6.100;-1.611014;0.314159
6.110;-1.610449;0.308572
6.120;-1.610043;0.302229
6.130;-1.609447;0.295313
6.140;-1.608433;0.288101
6.150;-1.606977;0.280882
6.160;-1.605242;0.273871
6.170;-1.603443;0.267176
6.180;-1.601675;0.260814
6.190;-1.599789;0.254758
6.200;-1.597393;0.248984
6.210;-1.593996;0.243508
6.220;-1.589232;0.238368
6.230;-1.583035;0.233556
6.240;-1.575682;0.228944
6.250;-1.567685;0.224265
6.260;-1.559609;0.219186
6.270;-1.551913;0.213452
6.280;-1.544886;0.207007
6.290;-1.538675;0.200062
6.300;-1.533373;0.193036
6.310;-1.529079;0.186445
6.320;-1.525889;0.180751
6.330;-1.523833;0.176242
6.340;-1.522818;0.172948
6.350;-1.522625;0.170622
6.360;-1.522989;0.168789
6.370;-1.523706;0.166877
6.380;-1.524706;0.164392
6.390;-1.526031;0.161084
6.400;-1.527726;0.157030
6.410;-1.529716;0.152618
6.420;-1.531759;0.148432
6.430;-1.533518;0.145090
6.440;-1.534710;0.143080
6.450;-1.535227;0.142645
6.460;-1.535175;0.143733
6.470;-1.534811;0.146002
6.480;-1.534406;0.148869
6.490;-1.534104;0.151620
6.500;-1.533830;0.153583
6.510;-1.533289;0.154334
6.520;-1.532082;0.153846
6.530;-1.529894;0.152519
6.540;-1.526693;0.151038
6.550;-1.522831;0.150123
6.560;-1.518996;0.150277
6.570;-1.516012;0.151641
6.580;-1.514596;0.153986
6.590;-1.515159;0.156842
6.600;-1.517748;0.159684
6.610;-1.522104;0.162122
6.620;-1.527797;0.164028
6.630;-1.534343;0.165567
6.640;-1.541264;0.167131
6.650;-1.548100;0.169198
6.660;-1.554401;0.172147
6.670;-1.559747;0.176110
6.680;-1.563825;0.180904
6.690;-1.566531;0.186099
6.700;-1.568038;0.191203
6.710;-1.568779;0.195903
6.720;-1.569319;0.200203
6.730;-1.570170;0.204410
6.740;-1.571650;0.208954
6.750;-1.573843;0.214171
6.760;-1.576652;0.220146
6.770;-1.579860;0.226665
6.780;-1.583173;0.233270
6.790;-1.586243;0.239410
6.800;-1.588740;0.244628
6.810;-1.590463;0.248730
6.820;-1.591468;0.251858
6.830;-1.592098;0.254463
6.840;-1.592883;0.257171
6.850;-1.594328;0.260554
6.860;-1.596725;0.264894
6.870;-1.600073;0.270032
6.880;-1.604166;0.275403
6.890;-1.608752;0.280250
6.900;-1.613668;0.283919
6.910;-1.618881;0.286115
6.920;-1.624444;0.287022
6.930;-1.630408;0.287245
6.940;-1.636740;0.287596
6.950;-1.643286;0.288813
6.960;-1.649788;0.291329
6.970;-1.655973;0.295191
6.980;-1.661672;0.300119
6.990;-1.666928;0.305658
7.000;-1.672033;0.311315
7.010;-1.677464;0.316677
7.020;-1.683735;0.321490
7.030;-1.691203;0.325693
7.040;-1.699922;0.329407
7.050;-1.709608;0.332867
7.060;-1.719733;0.336335
7.070;-1.729729;0.340025
7.080;-1.739214;0.344082
7.090;-1.748136;0.348592
7.100;-1.756779;0.353573
7.110;-1.765618;0.358931
7.120;-1.775113;0.364405
7.130;-1.785535;0.369600
7.140;-1.796886;0.374101
7.150;-1.808923;0.377645
7.160;-1.821251;0.380210
7.170;-1.833409;0.382005
7.180;-1.844932;0.383361
7.190;-1.855395;0.384575
7.200;-1.864483;0.385780
7.210;-1.872075;0.386888
7.220;-1.878310;0.387631
7.230;-1.883564;0.387681
7.240;-1.888345;0.386805
7.250;-1.893157;0.385001
7.260;-1.898377;0.382581
7.270;-1.904197;0.380122
7.280;-1.910608;0.378298
7.290;-1.917423;0.377613
7.300;-1.924333;0.378168
7.310;-1.930971;0.379599
7.320;-1.936998;0.381221
7.330;-1.942172;0.382331
7.340;-1.946388;0.382501
7.350;-1.949689;0.381701
7.360;-1.952249;0.380212
7.370;-1.954351;0.378379
7.380;-1.956337;0.376384
7.390;-1.958519;0.374182
7.400;-1.961059;0.371602
7.410;-1.963862;0.368529
7.420;-1.966563;0.365036
7.430;-1.968650;0.361378
7.440;-1.969668;0.357894
7.450;-1.969372;0.354855
7.460;-1.967768;0.352361
7.470;-1.965018;0.350345
7.480;-1.961313;0.348687
7.490;-1.956804;0.347357
7.500;-1.951631;0.346486
7.510;-1.946010;0.346288
7.520;-1.940289;0.346910
7.530;-1.934906;0.348283
7.540;-1.930267;0.350094
7.550;-1.926581;0.351886
7.560;-1.923765;0.353237
7.570;-1.921466;0.353934
7.580;-1.919217;0.354064
7.590;-1.916645;0.353991
7.600;-1.913647;0.354259
7.610;-1.910435;0.355441
7.620;-1.907439;0.357967
7.630;-1.905089;0.361971
7.640;-1.903615;0.367208
7.650;-1.902947;0.373105
7.660;-1.902780;0.378934
7.670;-1.902733;0.384021
7.680;-1.902511;0.387921
7.690;-1.901996;0.390501
7.700;-1.901264;0.391924
7.710;-1.900550;0.392554
7.720;-1.900210;0.392805
7.730;-1.900656;0.393033
7.740;-1.902300;0.393490
7.750;-1.905448;0.394348
7.760;-1.910181;0.395721
7.770;-1.916232;0.397656
7.780;-1.922959;0.400093
7.790;-1.929477;0.402857
7.800;-1.934901;0.405721
7.810;-1.938630;0.408519
7.820;-1.940528;0.411244
7.830;-1.940948;0.414042
7.840;-1.940572;0.417098
7.850;-1.940138;0.420504
7.860;-1.940169;0.424187
7.870;-1.940797;0.427926
7.880;-1.941752;0.431425
7.890;-1.942511;0.434402
7.900;-1.942542;0.436679
7.910;-1.941550;0.438245
7.920;-1.939599;0.439254
7.930;-1.937086;0.439938
7.940;-1.934572;0.440483
7.950;-1.932586;0.440921
7.960;-1.931479;0.441129
7.970;-1.931379;0.440935
7.980;-1.932232;0.440274
