Time[s];COPx[cm];COPy[cm]
0.010;-5.071102;-2.241843
0.020;-5.080841;-2.266111
0.030;-5.088306;-2.286916
0.040;-5.091629;-2.301593
0.050;-5.089734;-2.308991
0.060;-5.082477;-2.309482
0.070;-5.070599;-2.304529
0.080;-5.055565;-2.296082
0.090;-5.039285;-2.286083
0.100;-5.023719;-2.276141
0.110;-5.010402;-2.267347
0.120;-5.000024;-2.260162
0.130;-4.992281;-2.254304
0.140;-4.986067;-2.248721
0.150;-4.979926;-2.241729
0.160;-4.972587;-2.231378
0.170;-4.963372;-2.215957
0.180;-4.952367;-2.194428
0.190;-4.940318;-2.166606
0.200;-4.928351;-2.133045
0.210;-4.917600;-2.094708
0.220;-4.908877;-2.052585
0.230;-4.902455;-2.007388
0.240;-4.898022;-1.959427
0.250;-4.894794;-1.908708
0.260;-4.891750;-1.855221
0.270;-4.887927;-1.799274
0.280;-4.882706;-1.741678
0.290;-4.876008;-1.683632
0.300;-4.868318;-1.626310
0.310;-4.860518;-1.570330
0.320;-4.853576;-1.515379
0.330;-4.848199;-1.460205
0.340;-4.844550;-1.403044
0.350;-4.842110;-1.342354
0.360;-4.839735;-1.277622
0.370;-4.835890;-1.209930
0.380;-4.829021;-1.141994
0.390;-4.817968;-1.077597
0.400;-4.802298;-1.020580
0.410;-4.782428;-0.973773
0.420;-4.759502;-0.938254
0.430;-4.735067;-0.913173
0.440;-4.710687;-0.896189
0.450;-4.687631;-0.884306
0.460;-4.666720;-0.874793
0.470;-4.648324;-0.865859
0.480;-4.632451;-0.856882
0.490;-4.618829;-0.848200
0.500;-4.606947;-0.840633
0.510;-4.596046;-0.834976
0.520;-4.585157;-0.831644
0.530;-4.573231;-0.830547
0.540;-4.559362;-0.831187
0.550;-4.543000;-0.832892
0.560;-4.524105;-0.835102
0.570;-4.503149;-0.837588
0.580;-4.480997;-0.840562
0.590;-4.458693;-0.844678
0.600;-4.437220;-0.850941
0.610;-4.417314;-0.860525
0.620;-4.399382;-0.874507
0.630;-4.383525;-0.893533
0.640;-4.369618;-0.917512
0.650;-4.357382;-0.945446
0.660;-4.346431;-0.975554
0.670;-4.336302;-1.005674
0.680;-4.326532;-1.033835
0.690;-4.316773;-1.058759
0.700;-4.306889;-1.080081
0.710;-4.296957;-1.098224
0.720;-4.287137;-1.114013
0.730;-4.277459;-1.128236
0.740;-4.267634;-1.141380
0.750;-4.256966;-1.153625
0.760;-4.244388;-1.165044
0.770;-4.228606;-1.175859
0.780;-4.208286;-1.186625
0.790;-4.182245;-1.198273
0.800;-4.149612;-1.211986
0.810;-4.109970;-1.228917
0.820;-4.063469;-1.249841
0.830;-4.010901;-1.274875
0.840;-3.953637;-1.303412
0.850;-3.893403;-1.334289
0.860;-3.831933;-1.366087
0.870;-3.770667;-1.397401
0.880;-3.710606;-1.426990
0.890;-3.652352;-1.453811
0.900;-3.596234;-1.477031
0.910;-3.542409;-1.496132
0.920;-3.490868;-1.511106
0.930;-3.441379;-1.522637
0.940;-3.393461;-1.532103
0.950;-3.346493;-1.541344
0.960;-3.299939;-1.552265
0.970;-3.253572;-1.566469
0.980;-3.207572;-1.585007
0.990;-3.162440;-1.608307
1.000;-3.118820;-1.636214
1.010;-3.077325;-1.668096
1.020;-3.038444;-1.702970
1.030;-3.002506;-1.739650
1.040;-2.969645;-1.776900
1.050;-2.939780;-1.813599
1.060;-2.912605;-1.848858
1.070;-2.887671;-1.882111
1.080;-2.864513;-1.913173
1.090;-2.842790;-1.942228
1.100;-2.822364;-1.969733
1.110;-2.803294;-1.996227
1.120;-2.785755;-2.022130
1.130;-2.769909;-2.047616
1.140;-2.755793;-2.072585
1.150;-2.743250;-2.096757
1.160;-2.731943;-2.119810
1.170;-2.721424;-2.141549
1.180;-2.711215;-2.162031
1.190;-2.700826;-2.181654
1.200;-2.689745;-2.201171
1.210;-2.677454;-2.221591
1.220;-2.663525;-2.243949
1.230;-2.647800;-2.269005
1.240;-2.630537;-2.296989
1.250;-2.612449;-2.327501
1.260;-2.594587;-2.359621
1.270;-2.578101;-2.392159
1.280;-2.563966;-2.423973
1.290;-2.552764;-2.454245
1.300;-2.544626;-2.482651
1.310;-2.539317;-2.509416
1.320;-2.536442;-2.535266
1.330;-2.535686;-2.561292
1.340;-2.537074;-2.588748
1.350;-2.541178;-2.618769
1.360;-2.549205;-2.652056
1.370;-2.562846;-2.688602
1.380;-2.583884;-2.727562
1.390;-2.613636;-2.767320
1.400;-2.652465;-2.805725
1.410;-2.699540;-2.840424
1.420;-2.752965;-2.869209
1.430;-2.810248;-2.890305
1.440;-2.868938;-2.902566
1.450;-2.927222;-2.905562
1.460;-2.984252;-2.899582
1.470;-3.040104;-2.885552
1.480;-3.095375;-2.864862
1.490;-3.150612;-2.839113
1.500;-3.205799;-2.809840
1.510;-3.260138;-2.778239
1.520;-3.312210;-2.744952
1.530;-3.360460;-2.709950
1.540;-3.403753;-2.672622
1.550;-3.441757;-2.632081
1.560;-3.474962;-2.587617
1.570;-3.504360;-2.539081
1.580;-3.530986;-2.487026
1.590;-3.555575;-2.432522
1.600;-3.578471;-2.376767
1.610;-3.599772;-2.320691
1.620;-3.619542;-2.264757
1.630;-3.637933;-2.209009
1.640;-3.655233;-2.153284
1.650;-3.671872;-2.097456
1.660;-3.688465;-2.041615
1.670;-3.705848;-1.986076
1.680;-3.725044;-1.931269
1.690;-3.747126;-1.877539
1.700;-3.773013;-1.824985
1.710;-3.803279;-1.773391
1.720;-3.838075;-1.722271
1.730;-3.877117;-1.671018
1.740;-3.919680;-1.619095
1.750;-3.964553;-1.566238
1.760;-4.010041;-1.512611
1.770;-4.054151;-1.458873
1.780;-4.094959;-1.406095
1.790;-4.131051;-1.355529
1.800;-4.161843;-1.308274
1.810;-4.187614;-1.264977
1.820;-4.209266;-1.225647
1.830;-4.227898;-1.189615
1.840;-4.244409;-1.155600
1.850;-4.259295;-1.121867
1.860;-4.272638;-1.086476
1.870;-4.284224;-1.047575
1.880;-4.293636;-1.003672
1.890;-4.300306;-0.953833
1.900;-4.303534;-0.897792
1.910;-4.302556;-0.836010
1.920;-4.296668;-0.769706
1.930;-4.285365;-0.700825
1.940;-4.268423;-0.631875
1.950;-4.245929;-0.565580
1.960;-4.218297;-0.504424
1.970;-4.186296;-0.450192
1.980;-4.151038;-0.403682
1.990;-4.113837;-0.364706
2.000;-4.075928;-0.332377
2.010;-4.038171;-0.305519
2.020;-4.000933;-0.283033
2.030;-3.964188;-0.264116
2.040;-3.927772;-0.248330
2.050;-3.891632;-0.235580
2.060;-3.855943;-0.226071
2.070;-3.821102;-0.220293
2.080;-3.787642;-0.219060
2.090;-3.756139;-0.223541
2.100;-3.727135;-0.235158
2.110;-3.701106;-0.255302
2.120;-3.678452;-0.284932
2.130;-3.659477;-0.324237
2.140;-3.644325;-0.372520
2.150;-3.632862;-0.428295
2.160;-3.624560;-0.489525
2.170;-3.618478;-0.553910
2.180;-3.613402;-0.619171
2.190;-3.608135;-0.683317
2.200;-3.601793;-0.744843
2.210;-3.593979;-0.802854
2.220;-3.584782;-0.857076
2.230;-3.574669;-0.907712
2.240;-3.564380;-0.955181
2.250;-3.554841;-0.999828
2.260;-3.547081;-1.041783
2.270;-3.542111;-1.081041
2.280;-3.540750;-1.117736
2.290;-3.543429;-1.152417
2.300;-3.550060;-1.186186
2.310;-3.560070;-1.220617
2.320;-3.572629;-1.257493
2.330;-3.586995;-1.298483
2.340;-3.602814;-1.344872
2.350;-3.620233;-1.397429
2.360;-3.639796;-1.456399
2.370;-3.662227;-1.521578
2.380;-3.688260;-1.592402
2.390;-3.718571;-1.667995
2.400;-3.753769;-1.747220
2.410;-3.794341;-1.828810
2.420;-3.840486;-1.911624
2.430;-3.891844;-1.994962
2.440;-3.947211;-2.078765
2.450;-4.004435;-2.163568
2.460;-4.060648;-2.250175
2.470;-4.112873;-2.339166
2.480;-4.158814;-2.430426
2.490;-4.197506;-2.522857
2.500;-4.229530;-2.614427
2.510;-4.256714;-2.702578
2.520;-4.281438;-2.784912
2.530;-4.305863;-2.859911
2.540;-4.331348;-2.927395
2.550;-4.358249;-2.988473
2.560;-4.386103;-3.044948
2.570;-4.414067;-3.098382
2.580;-4.441411;-3.149213
2.590;-4.467863;-3.196335
2.600;-4.493740;-3.237397
2.610;-4.519837;-3.269754
2.620;-4.547144;-3.291678
2.630;-4.576418;-3.303283
2.640;-4.607758;-3.306693
2.650;-4.640369;-3.305363
2.660;-4.672655;-3.302829
2.670;-4.702649;-3.301501
2.680;-4.728582;-3.302019
2.690;-4.749311;-3.303438
2.700;-4.764397;-3.304073
2.710;-4.773857;-3.302529
2.720;-4.777764;-3.298459
2.730;-4.775956;-3.292779
2.740;-4.768025;-3.287377
2.750;-4.753559;-3.284573
2.760;-4.732462;-3.286549
2.770;-4.705118;-3.294907
2.780;-4.672284;-3.310393
2.790;-4.634776;-3.332788
2.800;-4.593131;-3.360951
2.810;-4.547441;-3.393038
2.820;-4.497421;-3.426909
2.830;-4.442716;-3.460639
2.840;-4.383292;-3.493021
2.850;-4.319781;-3.523831
2.860;-4.253629;-3.553776
2.870;-4.186968;-3.584118
2.880;-4.122245;-3.616125
2.890;-4.061747;-3.650518
2.900;-4.007174;-3.687086
2.910;-3.959442;-3.724594
2.920;-3.918759;-3.761016
2.930;-3.884925;-3.794085
2.940;-3.857696;-3.821947
2.950;-3.837019;-3.843675
2.960;-3.823055;-3.859416
2.970;-3.816004;-3.870125
2.980;-3.815822;-3.877072
2.990;-3.821973;-3.881344
3.000;-3.833324;-3.883532
3.010;-3.848238;-3.883632
3.020;-3.864849;-3.881120
3.030;-3.881382;-3.875174
3.040;-3.896395;-3.864987
3.050;-3.908865;-3.850119
3.060;-3.918139;-3.830743
3.070;-3.923845;-3.807663
3.080;-3.925844;-3.782022
3.090;-3.924256;-3.754799
3.100;-3.919508;-3.726291
3.110;-3.912296;-3.695830
3.120;-3.903438;-3.661883
3.130;-3.893648;-3.622530
3.140;-3.883403;-3.576169
3.150;-3.872999;-3.522161
3.160;-3.862795;-3.461199
3.170;-3.853442;-3.395271
3.180;-3.845907;-3.327278
3.190;-3.841254;-3.260460
3.200;-3.840295;-3.197811
3.210;-3.843384;-3.141624
3.220;-3.850503;-3.093196
3.230;-3.861645;-3.052744
3.240;-3.877239;-3.019507
3.250;-3.898383;-2.992031
3.260;-3.926734;-2.968560
3.270;-3.964101;-2.947430
3.280;-4.011870;-2.927383
3.290;-4.070373;-2.907717
3.300;-4.138368;-2.888217
3.310;-4.212807;-2.868908
3.320;-4.289132;-2.849696
3.330;-4.362131;-2.830050
3.340;-4.427150;-2.808864
3.350;-4.481218;-2.784587
3.360;-4.523634;-2.755636
3.370;-4.555818;-2.720966
3.380;-4.580530;-2.680531
3.390;-4.600849;-2.635356
3.400;-4.619282;-2.587170
3.410;-4.637278;-2.537727
3.420;-4.655182;-2.488125
3.430;-4.672515;-2.438407
3.440;-4.688379;-2.387608
3.450;-4.701790;-2.334193
3.460;-4.711879;-2.276695
3.470;-4.717978;-2.214291
3.480;-4.719642;-2.147139
3.490;-4.716631;-2.076415
3.500;-4.708859;-2.004047
3.510;-4.696345;-1.932273
3.520;-4.679189;-1.863146
3.530;-4.657608;-1.798121
3.540;-4.632023;-1.737810
3.550;-4.603135;-1.681950
3.560;-4.571980;-1.629572
3.570;-4.539860;-1.579288
3.580;-4.508174;-1.529638
3.590;-4.478136;-1.479420
3.600;-4.450521;-1.427927
3.610;-4.425500;-1.375048
3.620;-4.402655;-1.321194
3.630;-4.381138;-1.267117
3.640;-4.359902;-1.213656
3.650;-4.337888;-1.161519
3.660;-4.314103;-1.111133
3.670;-4.287600;-1.062621
3.680;-4.257474;-1.015891
3.690;-4.222974;-0.970768
3.700;-4.183724;-0.927102
3.710;-4.139960;-0.884801
3.720;-4.092617;-0.843770
3.730;-4.043198;-0.803785
3.740;-3.993465;-0.764383
3.750;-3.945090;-0.724912
3.760;-3.899406;-0.684801
3.770;-3.857300;-0.643970
3.780;-3.819215;-0.603176
3.790;-3.785184;-0.564048
3.800;-3.754865;-0.528766
3.810;-3.727619;-0.499479
3.820;-3.702642;-0.477700
3.830;-3.679174;-0.463884
3.840;-3.656721;-0.457288
3.850;-3.635207;-0.456142
3.860;-3.614947;-0.458076
3.870;-3.596408;-0.460710
3.880;-3.579853;-0.462227
3.890;-3.565056;-0.461758
3.900;-3.551266;-0.459483
3.910;-3.537468;-0.456448
3.920;-3.522775;-0.454197
3.930;-3.506740;-0.454351
3.940;-3.489401;-0.458248
3.950;-3.471136;-0.466701
3.960;-3.452453;-0.479912
3.970;-3.433882;-0.497535
3.980;-3.415942;-0.518845
3.990;-3.399136;-0.542944
4.000;-3.383948;-0.568949
4.010;-3.370844;-0.596085
4.020;-3.360298;-0.623721
4.030;-3.352802;-0.651375
4.040;-3.348839;-0.678749
4.050;-3.348833;-0.705788
4.060;-3.353104;-0.732709
4.070;-3.361866;-0.759950
4.080;-3.375267;-0.788071
4.090;-3.393455;-0.817617
4.100;-3.416641;-0.849031
4.110;-3.445114;-0.882600
4.120;-3.479201;-0.918464
4.130;-3.519203;-0.956628
4.140;-3.565319;-0.996927
4.150;-3.617574;-1.038937
4.160;-3.675749;-1.081926
4.170;-3.739328;-1.124947
4.180;-3.807532;-1.167112
4.190;-3.879459;-1.207909
4.200;-3.954297;-1.247392
4.210;-4.031515;-1.286099
4.220;-4.110900;-1.324741
4.230;-4.192423;-1.363842
4.240;-4.275964;-1.403508
4.250;-4.361006;-1.443397
4.260;-4.446472;-1.482843
4.270;-4.530785;-1.521031
4.280;-4.612168;-1.557150
4.290;-4.689031;-1.590490
4.300;-4.760308;-1.620493
4.310;-4.825600;-1.646756
4.320;-4.885097;-1.669016
4.330;-4.939300;-1.687117
4.340;-4.988680;-1.700973
4.350;-5.033394;-1.710533
4.360;-5.073155;-1.715751
4.370;-5.107278;-1.716586
4.380;-5.134882;-1.713040
4.390;-5.155201;-1.705244
4.400;-5.167891;-1.693541
4.410;-5.173254;-1.678511
4.420;-5.172272;-1.660914
4.430;-5.166422;-1.641576
4.440;-5.157286;-1.621286
4.450;-5.146095;-1.600755
4.460;-5.133409;-1.580606
4.470;-5.119094;-1.561361
4.480;-5.102632;-1.543391
4.490;-5.083571;-1.526837
4.500;-5.061899;-1.511506
4.510;-5.038173;-1.496781
4.520;-5.013348;-1.481607
4.530;-4.988449;-1.464640
4.540;-4.964250;-1.444564
4.550;-4.941111;-1.420462
4.560;-4.919001;-1.392084
4.570;-4.897641;-1.359863
4.580;-4.876656;-1.324704
4.590;-4.855694;-1.287666
4.600;-4.834512;-1.249717
4.610;-4.813033;-1.211673
4.620;-4.791404;-1.174323
4.630;-4.770029;-1.138642
4.640;-4.749601;-1.105926
4.650;-4.731069;-1.077709
4.660;-4.715521;-1.055433
4.670;-4.703984;-1.039959
4.680;-4.697162;-1.031128
4.690;-4.695222;-1.027578
4.700;-4.697702;-1.026943
4.710;-4.703597;-1.026401
4.720;-4.711621;-1.023419
4.730;-4.720526;-1.016410
4.740;-4.729368;-1.005097
4.750;-4.737623;-0.990445
4.760;-4.745165;-0.974248
4.770;-4.752166;-0.958564
4.780;-4.758988;-0.945232
4.790;-4.766068;-0.935594
4.800;-4.773801;-0.930386
4.810;-4.782408;-0.929719
4.820;-4.791826;-0.933099
4.830;-4.801694;-0.939537
4.840;-4.811442;-0.947795
4.850;-4.820445;-0.956736
4.860;-4.828142;-0.965667
4.870;-4.834078;-0.974573
4.880;-4.837879;-0.984143
4.890;-4.839260;-0.995568
4.900;-4.838100;-1.010137
4.910;-4.834562;-1.028712
4.920;-4.829159;-1.051232
4.930;-4.822676;-1.076486
4.940;-4.815933;-1.102289
4.950;-4.809489;-1.126055
4.960;-4.803405;-1.145473
4.970;-4.797229;-1.159005
4.980;-4.790202;-1.166038
4.990;-4.781601;-1.166753
5.000;-4.771028;-1.161860
5.010;-4.758541;-1.152369
5.020;-4.744590;-1.139465
5.030;-4.729816;-1.124439
5.040;-4.714785;-1.108612
5.050;-4.699720;-1.093160
5.060;-4.684302;-1.078898
5.070;-4.667581;-1.066162
5.080;-4.648038;-1.054897
5.090;-4.623780;-1.044939
5.100;-4.592855;-1.036294
5.110;-4.553638;-1.029223
5.120;-4.505207;-1.024060
5.130;-4.447624;-1.020918
5.140;-4.382003;-1.019486
5.150;-4.310346;-1.019062
5.160;-4.235155;-1.018751
5.170;-4.158974;-1.017672
5.180;-4.083977;-1.015094
5.190;-4.011728;-1.010485
5.200;-3.943170;-1.003559
5.210;-3.878803;-0.994346
5.220;-3.818956;-0.983256
5.230;-3.764019;-0.971058
5.240;-3.714508;-0.958714
5.250;-3.670966;-0.947122
5.260;-3.633761;-0.936843
5.270;-3.602899;-0.927921
5.280;-3.577949;-0.919881
5.290;-3.558080;-0.911907
5.300;-3.542191;-0.903150
5.310;-3.529058;-0.893028
5.320;-3.517467;-0.881394
5.330;-3.506331;-0.868529
5.340;-3.494791;-0.854988
5.350;-3.482315;-0.841384
5.360;-3.468748;-0.828192
5.370;-3.454258;-0.815647
5.380;-3.439150;-0.803732
5.390;-3.423610;-0.792269
5.400;-3.407511;-0.781025
5.410;-3.390421;-0.769793
5.420;-3.371830;-0.758446
5.430;-3.351477;-0.746946
5.440;-3.329607;-0.735328
5.450;-3.307012;-0.723667
5.460;-3.284838;-0.712050
5.470;-3.264264;-0.700597
5.480;-3.246213;-0.689504
5.490;-3.231193;-0.679058
5.500;-3.219289;-0.669550
5.510;-3.210269;-0.661081
5.520;-3.203730;-0.653349
5.530;-3.199272;-0.645528
5.540;-3.196625;-0.636311
5.550;-3.195697;-0.624123
5.560;-3.196548;-0.607475
5.570;-3.199299;-0.585376
5.580;-3.204038;-0.557633
5.590;-3.210785;-0.524919
5.600;-3.219500;-0.488582
5.610;-3.230125;-0.450269
5.620;-3.242620;-0.411497
5.630;-3.257020;-0.373269
5.640;-3.273506;-0.335837
5.650;-3.292460;-0.298701
5.660;-3.314438;-0.260883
5.670;-3.340016;-0.221409
5.680;-3.369551;-0.179824
5.690;-3.402944;-0.136528
5.700;-3.439488;-0.092784
5.710;-3.477889;-0.050400
5.720;-3.516457;-0.011223
5.730;-3.553436;0.023415
5.740;-3.587409;0.053139
5.750;-3.617639;0.078743
5.760;-3.644270;0.102095
5.770;-3.668311;0.125707
5.780;-3.691381;0.152103
5.790;-3.715239;0.183184
5.800;-3.741234;0.219746
5.810;-3.769825;0.261277
5.820;-3.800396;0.306081
5.830;-3.831468;0.351735
5.840;-3.861258;0.395776
5.850;-3.888346;0.436372
5.860;-3.912166;0.472713
5.870;-3.933134;0.505016
5.880;-3.952389;0.534199
5.890;-3.971277;0.561392
5.900;-3.990800;0.587415
5.910;-4.011245;0.612383
5.920;-4.032132;0.635554
5.930;-4.052473;0.655488
5.940;-4.071240;0.670482
5.950;-4.087839;0.679119
5.960;-4.102435;0.680730
5.970;-4.116006;0.675605
5.980;-4.130079;0.664888
5.990;-4.146249;0.650191
6.000;-4.165681;0.633071
6.010;-4.188787;0.614594
6.020;-4.215176;0.595181
6.030;-4.243861;0.574775
6.040;-4.273600;0.553178
6.050;-4.303231;0.530327
6.060;-4.331886;0.506368
6.070;-4.359050;0.481518
6.080;-4.384474;0.455847
6.090;-4.407991;0.429173
6.100;-4.429309;0.401141
6.110;-4.447864;0.371444
6.120;-4.462823;0.340008
6.130;-4.473272;0.307055
6.140;-4.478519;0.272987
6.150;-4.478391;0.238162
6.160;-4.473379;0.202666
6.170;-4.464554;0.166213
6.180;-4.453288;0.128270
6.190;-4.440886;0.088360
6.200;-4.428257;0.046357
6.210;-4.415780;0.002562
6.220;-4.403385;-0.042511
6.230;-4.390819;-0.088497
6.240;-4.377904;-0.135451
6.250;-4.364695;-0.183876
6.260;-4.351468;-0.234461
6.270;-4.338619;-0.287657
6.280;-4.326560;-0.343265
6.290;-4.315654;-0.400243
6.300;-4.306202;-0.456902
6.310;-4.298446;-0.511451
6.320;-4.292569;-0.562694
6.330;-4.288691;-0.610558
6.340;-4.286851;-0.656198
6.350;-4.287050;-0.701616
6.360;-4.289342;-0.748959
6.370;-4.293945;-0.799791
6.380;-4.301241;-0.854643
6.390;-4.311658;-0.912987
6.400;-4.325479;-0.973611
6.410;-4.342699;-1.035179
6.420;-4.362969;-1.096732
6.430;-4.385645;-1.157952
6.440;-4.409900;-1.219132
6.450;-4.434894;-1.280923
6.460;-4.459921;-1.344022
6.470;-4.484464;-1.408903
6.480;-4.508141;-1.475672
6.490;-4.530553;-1.544011
6.500;-4.551137;-1.613221
6.510;-4.569107;-1.682316
6.520;-4.583575;-1.750173
6.530;-4.593820;-1.815700
6.540;-4.599573;-1.877994
6.550;-4.601189;-1.936502
6.560;-4.599576;-1.991113
6.570;-4.595935;-2.042172
6.580;-4.591392;-2.090394
6.590;-4.586692;-2.136715
6.600;-4.582074;-2.182096
6.610;-4.577355;-2.227346
6.620;-4.572121;-2.272959
6.630;-4.565904;-2.319060
6.640;-4.558234;-2.365430
6.650;-4.548619;-2.411601
6.660;-4.536539;-2.456966
6.670;-4.521538;-2.500834
6.680;-4.503361;-2.542438
6.690;-4.482018;-2.580866
6.700;-4.457708;-2.614985
6.710;-4.430619;-2.643433
6.720;-4.400770;-2.664793
6.730;-4.368028;-2.677937
6.740;-4.332332;-2.682432
6.750;-4.294007;-2.678818
6.760;-4.253940;-2.668571
6.770;-4.213447;-2.653735
6.780;-4.173845;-2.636304
6.790;-4.135891;-2.617633
6.800;-4.099318;-2.598111
6.810;-4.062667;-2.577252
6.820;-4.023501;-2.554134
6.830;-3.978999;-2.527976
6.840;-3.926788;-2.498606
6.850;-3.865735;-2.466661
6.860;-3.796365;-2.433435
6.870;-3.720720;-2.400463
6.880;-3.641708;-2.369009
6.890;-3.562239;-2.339643
6.900;-3.484503;-2.312105
6.910;-3.409639;-2.285501
6.920;-3.337854;-2.258798
6.930;-3.268873;-2.231423
6.940;-3.202460;-2.203717
6.950;-3.138795;-2.177018
6.960;-3.078551;-2.153291
6.970;-3.022678;-2.134473
6.980;-2.972052;-2.121797
6.990;-2.927162;-2.115357
7.000;-2.887985;-2.114028
7.010;-2.854046;-2.115733
7.020;-2.824594;-2.117961
7.030;-2.798776;-2.118378
7.040;-2.775747;-2.115350
7.050;-2.754678;-2.108225
7.060;-2.734755;-2.097321
7.070;-2.715200;-2.083660
7.080;-2.695387;-2.068561
7.090;-2.675006;-2.053253
7.100;-2.654190;-2.038582
7.110;-2.633511;-2.024855
7.120;-2.613789;-2.011803
7.130;-2.595782;-1.998645
7.140;-2.579898;-1.984235
7.150;-2.566088;-1.967307
7.160;-2.553958;-1.946809
7.170;-2.543073;-1.922275
7.180;-2.533253;-1.894068
7.190;-2.524710;-1.863355
7.200;-2.517947;-1.831763
7.210;-2.513500;-1.800862
7.220;-2.511698;-1.771693
7.230;-2.512601;-1.744526
7.240;-2.516112;-1.718900
7.250;-2.522201;-1.693888
7.260;-2.531064;-1.668505
7.270;-2.543126;-1.642105
7.280;-2.558870;-1.614640
7.290;-2.578553;-1.586660
7.300;-2.601935;-1.559114
7.310;-2.628157;-1.533047
7.320;-2.655823;-1.509320
7.330;-2.683266;-1.488394
7.340;-2.708920;-1.470186
7.350;-2.731629;-1.454043
7.360;-2.750786;-1.438847
7.370;-2.766232;-1.423257
7.380;-2.778008;-1.405993
7.390;-2.786084;-1.386109
7.400;-2.790236;-1.363158
7.410;-2.790096;-1.337215
7.420;-2.785320;-1.308730
7.430;-2.775745;-1.278280
7.440;-2.761469;-1.246335
7.450;-2.742841;-1.213181
7.460;-2.720394;-1.179048
7.470;-2.694758;-1.144394
7.480;-2.666586;-1.110159
7.490;-2.636532;-1.077834
7.500;-2.605304;-1.049277
7.510;-2.573765;-1.026297
7.520;-2.543039;-1.010171
7.530;-2.514532;-1.001282
7.540;-2.489811;-0.999060
7.550;-2.470337;-1.002265
7.560;-2.457129;-1.009458
7.570;-2.450534;-1.019412
7.580;-2.450192;-1.031272
7.590;-2.455228;-1.044439
7.600;-2.464547;-1.058330
7.610;-2.477146;-1.072230
7.620;-2.492298;-1.085347
7.630;-2.509557;-1.097028
7.640;-2.528574;-1.106987
7.650;-2.548821;-1.115397
7.660;-2.569395;-1.122795
7.670;-2.588982;-1.129875
7.680;-2.606022;-1.137257
7.690;-2.618982;-1.145329
7.700;-2.626644;-1.154185
