Time[s];COPx[cm];COPy[cm]
0.010;-1.494656;0.015869
0.020;-1.504021;0.028410
0.030;-1.512689;0.040531
0.040;-1.520167;0.051784
0.050;-1.526176;0.061671
0.060;-1.530559;0.069707
0.070;-1.533140;0.075585
0.080;-1.533619;0.079354
0.090;-1.531579;0.081502
0.100;-1.526601;0.082851
0.110;-1.518468;0.084299
0.120;-1.507368;0.086527
0.130;-1.494003;0.089808
0.140;-1.479542;0.093982
0.150;-1.465423;0.098599
0.160;-1.453075;0.103119
0.170;-1.443647;0.107062
0.180;-1.437781;0.110085
0.190;-1.435463;0.111988
0.200;-1.435952;0.112741
0.210;-1.437847;0.112506
0.220;-1.439294;0.111639
0.230;-1.438368;0.110604
0.240;-1.433535;0.109813
0.250;-1.424099;0.109449
0.260;-1.410486;0.109397
0.270;-1.394243;0.109337
0.280;-1.377697;0.108955
0.290;-1.363322;0.108132
0.300;-1.352962;0.106940
0.310;-1.347147;0.105449
0.320;-1.344754;0.103513
0.330;-1.343212;0.100687
0.340;-1.339246;0.096374
0.350;-1.329890;0.090094
0.360;-1.313416;0.081734
0.370;-1.289842;0.071662
0.380;-1.260923;0.060672
0.390;-1.229657;0.049798
0.400;-1.199536;0.040077
0.410;-1.173788;0.032343
0.420;-1.154781;0.027125
0.430;-1.143685;0.024608
0.440;-1.140385;0.024651
0.450;-1.143590;0.026786
0.460;-1.151118;0.030246
0.470;-1.160333;0.034069
0.480;-1.168652;0.037288
0.490;-1.174047;0.039180
0.500;-1.175426;0.039465
0.510;-1.172788;0.038355
0.520;-1.167149;0.036416
0.530;-1.160234;0.034305
0.540;-1.154024;0.032523
0.550;-1.150260;0.031272
0.560;-1.150031;0.030428
0.570;-1.153526;0.029606
0.580;-1.159994;0.028301
0.590;-1.167942;0.026083
0.600;-1.175532;0.022780
0.610;-1.181069;0.018562
0.620;-1.183420;0.013900
0.630;-1.182249;0.009406
0.640;-1.178041;0.005626
0.650;-1.171962;0.002852
0.660;-1.165581;0.001047
0.670;-1.160521;-0.000082
0.680;-1.158085;-0.000881
0.690;-1.158943;-0.001556
0.700;-1.162979;-0.002088
0.710;-1.169320;-0.002317
0.720;-1.176556;-0.002124
0.730;-1.183064;-0.001608
0.740;-1.187386;-0.001128
0.750;-1.188554;-0.001192
0.760;-1.186322;-0.002232
0.770;-1.181241;-0.004391
0.780;-1.174550;-0.007429
0.790;-1.167868;-0.010787
0.800;-1.162759;-0.013767
0.810;-1.160263;-0.015749
0.820;-1.160567;-0.016365
0.830;-1.162939;-0.015569
0.840;-1.165967;-0.013591
0.850;-1.168013;-0.010790
0.860;-1.167720;-0.007491
0.870;-1.164387;-0.003881
0.880;-1.158120;-0.000003
0.890;-1.149768;0.004170
0.900;-1.140686;0.008638
0.910;-1.132396;0.013314
0.920;-1.126230;0.018043
0.930;-1.123053;0.022665
0.940;-1.123110;0.027085
0.950;-1.126032;0.031307
0.960;-1.130947;0.035427
0.970;-1.136663;0.039593
0.980;-1.141899;0.043946
0.990;-1.145529;0.048573
1.000;-1.146830;0.053514
1.010;-1.145689;0.058826
1.020;-1.142694;0.064640
1.030;-1.139078;0.071162
1.040;-1.136475;0.078588
1.050;-1.136554;0.087005
1.060;-1.140632;0.096351
1.070;-1.149382;0.106494
1.080;-1.162691;0.117361
1.090;-1.179692;0.129028
1.100;-1.198975;0.141701
1.110;-1.218939;0.155570
1.120;-1.238184;0.170615
1.130;-1.255815;0.186467
1.140;-1.271573;0.202400
1.150;-1.285795;0.217476
1.160;-1.299267;0.230824
1.170;-1.313017;0.241969
1.180;-1.328056;0.251065
1.190;-1.345076;0.258911
1.200;-1.364165;0.266663
1.210;-1.384616;0.275385
1.220;-1.404951;0.285618
1.230;-1.423210;0.297184
1.240;-1.437503;0.309271
1.250;-1.446641;0.320766
1.260;-1.450610;0.330677
1.270;-1.450662;0.338459
1.280;-1.448960;0.344134
1.290;-1.447957;0.348197
1.300;-1.449739;0.351416
1.310;-1.455566;0.354578
1.320;-1.465665;0.358265
1.330;-1.479254;0.362672
1.340;-1.494742;0.367529
1.350;-1.510044;0.372158
1.360;-1.522992;0.375684
1.370;-1.531776;0.377331
1.380;-1.535332;0.376717
1.390;-1.533578;0.374032
1.400;-1.527385;0.370001
1.410;-1.518292;0.365665
1.420;-1.508067;0.362047
1.430;-1.498275;0.359837
1.440;-1.489993;0.359169
1.450;-1.483726;0.359573
1.460;-1.479480;0.360132
1.470;-1.476934;0.359804
1.480;-1.475585;0.357803
1.490;-1.474853;0.353862
1.500;-1.474159;0.348304
1.510;-1.472986;0.341855
1.520;-1.470916;0.335296
1.530;-1.467610;0.329096
1.540;-1.462754;0.323213
1.550;-1.456045;0.317153
1.560;-1.447284;0.310251
1.570;-1.436565;0.302003
1.580;-1.424426;0.292288
1.590;-1.411857;0.281420
1.600;-1.400097;0.270054
1.610;-1.390293;0.259002
1.620;-1.383160;0.248997
1.630;-1.378750;0.240494
1.640;-1.376398;0.233576
1.650;-1.374824;0.228011
1.660;-1.372375;0.223400
1.670;-1.367382;0.219305
1.680;-1.358606;0.215303
1.690;-1.345645;0.210956
1.700;-1.329156;0.205782
1.710;-1.310752;0.199285
1.720;-1.292582;0.191080
1.730;-1.276713;0.181064
1.740;-1.264527;0.169552
1.750;-1.256355;0.157315
1.760;-1.251455;0.145450
1.770;-1.248316;0.135109
1.780;-1.245121;0.127155
1.790;-1.240218;0.121900
1.800;-1.232489;0.119015
1.810;-1.221580;0.117662
1.820;-1.207956;0.116792
1.830;-1.192782;0.115471
1.840;-1.177644;0.113122
1.850;-1.164177;0.109619
1.860;-1.153688;0.105220
1.870;-1.146877;0.100400
1.880;-1.143745;0.095657
1.890;-1.143704;0.091359
1.900;-1.145838;0.087708
1.910;-1.149173;0.084794
1.920;-1.152864;0.082695
1.930;-1.156250;0.081481
1.940;-1.158816;0.081133
1.950;-1.160143;0.081428
1.960;-1.159920;0.081941
1.970;-1.158017;0.082178
1.980;-1.154581;0.081772
1.990;-1.150072;0.080632
2.000;-1.145214;0.078963
2.010;-1.140853;0.077185
2.020;-1.137773;0.075810
2.030;-1.136542;0.075301
2.040;-1.137455;0.075929
2.050;-1.140596;0.077671
2.060;-1.145974;0.080212
2.070;-1.153589;0.083072
2.080;-1.163370;0.085759
2.090;-1.175004;0.087854
2.100;-1.187815;0.089055
2.110;-1.200821;0.089206
2.120;-1.212994;0.088377
2.130;-1.223618;0.086919
2.140;-1.232587;0.085416
2.150;-1.240467;0.084509
2.160;-1.248285;0.084661
2.170;-1.257120;0.086001
2.180;-1.267655;0.088310
2.190;-1.279902;0.091130
2.200;-1.293168;0.093910
2.210;-1.306301;0.096145
2.220;-1.318069;0.097486
2.230;-1.327547;0.097798
2.240;-1.334358;0.097177
2.250;-1.338687;0.095886
2.260;-1.341100;0.094239
2.270;-1.342246;0.092485
2.280;-1.342607;0.090745
2.290;-1.342398;0.089033
2.300;-1.341632;0.087305
2.310;-1.340236;0.085453
2.320;-1.338124;0.083278
2.330;-1.335206;0.080485
2.340;-1.331363;0.076783
2.350;-1.326485;0.072054
2.360;-1.320575;0.066528
2.370;-1.313876;0.060829
2.380;-1.306919;0.055859
2.390;-1.300420;0.052518
2.400;-1.295021;0.051402
2.410;-1.291009;0.052570
2.420;-1.288111;0.055460
2.430;-1.285486;0.058956
2.440;-1.281929;0.061613
2.450;-1.276236;0.062014
2.460;-1.267631;0.059175
2.470;-1.256103;0.052868
2.480;-1.242546;0.043732
2.490;-1.228611;0.033114
2.500;-1.216297;0.022660
2.510;-1.207377;0.013817
2.520;-1.202829;0.007425
2.530;-1.202472;0.003566
2.540;-1.204953;0.001693
2.550;-1.208144;0.000956
2.560;-1.209831;0.000568
2.570;-1.208441;0.000081
2.580;-1.203525;-0.000492
2.590;-1.195799;-0.000719
2.600;-1.186768;0.000062
2.610;-1.178125;0.002503
2.620;-1.171179;0.007025
2.630;-1.166550;0.013712
2.640;-1.164179;0.022315
2.650;-1.163602;0.032355
2.660;-1.164299;0.043234
2.670;-1.165957;0.054335
2.680;-1.168531;0.065081
2.690;-1.172138;0.074995
2.700;-1.176901;0.083763
2.710;-1.182835;0.091285
2.720;-1.189838;0.097679
2.730;-1.197736;0.103236
2.740;-1.206349;0.108328
2.750;-1.215546;0.113316
2.760;-1.225273;0.118444
2.770;-1.235519;0.123759
2.780;-1.246230;0.129098
2.790;-1.257221;0.134174
2.800;-1.268161;0.138727
2.810;-1.278688;0.142665
2.820;-1.288611;0.146101
2.830;-1.298049;0.149285
2.840;-1.307422;0.152496
2.850;-1.317239;0.155934
2.860;-1.327850;0.159662
2.870;-1.339269;0.163601
2.880;-1.351183;0.167574
2.890;-1.363117;0.171405
2.900;-1.374686;0.175017
2.910;-1.385828;0.178475
2.920;-1.396894;0.181942
2.930;-1.408549;0.185572
2.940;-1.421517;0.189414
2.950;-1.436286;0.193367
2.960;-1.452868;0.197209
2.970;-1.470742;0.200650
2.980;-1.488969;0.203377
2.990;-1.506478;0.205093
3.000;-1.522395;0.205579
3.010;-1.536302;0.204778
3.020;-1.548329;0.202847
3.030;-1.559091;0.200179
3.040;-1.569482;0.197357
3.050;-1.580448;0.195064
3.060;-1.592785;0.193909
3.070;-1.607014;0.194229
3.080;-1.623332;0.195923
3.090;-1.641583;0.198433
3.100;-1.661216;0.200896
3.110;-1.681250;0.202417
3.120;-1.700285;0.202347
3.130;-1.716643;0.200490
3.140;-1.728700;0.197166
3.150;-1.735363;0.193152
3.160;-1.736511;0.189472
3.170;-1.733163;0.187099
3.180;-1.727227;0.186659
3.190;-1.720907;0.188264
3.200;-1.716030;0.191534
3.210;-1.713577;0.195770
3.220;-1.713579;0.200165
3.230;-1.715352;0.203983
3.240;-1.717923;0.206690
3.250;-1.720432;0.208035
3.260;-1.722398;0.208067
3.270;-1.723799;0.207032
3.280;-1.724994;0.205174
3.290;-1.726565;0.202573
3.300;-1.729126;0.199143
3.310;-1.733125;0.194803
3.320;-1.738694;0.189676
3.330;-1.745560;0.184148
3.340;-1.753060;0.178727
3.350;-1.760250;0.173827
3.360;-1.766103;0.169603
3.370;-1.769775;0.165942
3.380;-1.770873;0.162562
3.390;-1.769642;0.159154
3.400;-1.766967;0.155516
3.410;-1.764187;0.151617
3.420;-1.762742;0.147594
3.430;-1.763800;0.143690
3.440;-1.767984;0.140165
3.450;-1.775275;0.137210
3.460;-1.785066;0.134901
3.470;-1.796332;0.133200
3.480;-1.807820;0.131999
3.490;-1.818255;0.131169
3.500;-1.826512;0.130568
3.510;-1.831802;0.129999
3.520;-1.833834;0.129142
3.530;-1.832963;0.127528
3.540;-1.830211;0.124598
3.550;-1.827124;0.119856
3.560;-1.825414;0.113038
3.570;-1.826518;0.104220
3.580;-1.831236;0.093825
3.590;-1.839569;0.082530
3.600;-1.850807;0.071099
3.610;-1.863779;0.060200
3.620;-1.877182;0.050241
3.630;-1.889914;0.041285
3.640;-1.901340;0.033052
3.650;-1.911468;0.025039
3.660;-1.920999;0.016702
3.670;-1.931238;0.007664
3.680;-1.943801;-0.002127
3.690;-1.960137;-0.012348
3.700;-1.980938;-0.022378
3.710;-2.005629;-0.031483
3.720;-2.032172;-0.039009
3.730;-2.057306;-0.044529
3.740;-2.077227;-0.047898
3.750;-2.088582;-0.049240
3.760;-2.089461;-0.048888
3.770;-2.080071;-0.047299
3.780;-2.062784;-0.044973
3.790;-2.041488;-0.042414
3.800;-2.020484;-0.040093
3.810;-2.003316;-0.038390
3.820;-1.991959;-0.037485
3.830;-1.986542;-0.037256
3.840;-1.985594;-0.037274
3.850;-1.986626;-0.036916
3.860;-1.986841;-0.035568
3.870;-1.983778;-0.032818
3.880;-1.975763;-0.028577
3.890;-1.962151;-0.023080
3.900;-1.943398;-0.016767
3.910;-1.920988;-0.010052
3.920;-1.897187;-0.003041
3.930;-1.874583;0.004705
3.940;-1.855444;0.014210
3.950;-1.841062;0.026844
3.960;-1.831357;0.043837
3.970;-1.824932;0.065716
3.980;-1.819550;0.091934
3.990;-1.812825;0.120852
4.000;-1.802865;0.150125
4.010;-1.788671;0.177347
4.020;-1.770297;0.200696
4.030;-1.748813;0.219361
4.040;-1.726118;0.233588
4.050;-1.704592;0.244405
4.060;-1.686600;0.253166
4.070;-1.673942;0.261133
4.080;-1.667394;0.269180
4.090;-1.666495;0.277661
4.100;-1.669673;0.286406
4.110;-1.674668;0.294828
4.120;-1.679170;0.302113
4.130;-1.681431;0.307454
4.140;-1.680656;0.310246
4.150;-1.677044;0.310211
4.160;-1.671518;0.307422
4.170;-1.665279;0.302238
4.180;-1.659389;0.295165
4.190;-1.654495;0.286695
4.200;-1.650778;0.277147
4.210;-1.648073;0.266591
4.220;-1.646091;0.254899
4.230;-1.644627;0.241937
4.240;-1.643687;0.227831
4.250;-1.643490;0.213175
4.260;-1.644357;0.198999
4.270;-1.646521;0.186477
4.280;-1.649924;0.176479
4.290;-1.654075;0.169207
4.300;-1.658046;0.164094
4.310;-1.660608;0.160016
4.320;-1.660485;0.155683
4.330;-1.656680;0.150069
4.340;-1.648784;0.142725
4.350;-1.637171;0.133906
4.360;-1.622982;0.124472
4.370;-1.607835;0.115565
4.380;-1.593349;0.108176
4.390;-1.580620;0.102784
4.400;-1.569853;0.099235
4.410;-1.560284;0.096889
4.420;-1.550450;0.094899
4.430;-1.538707;0.092478
4.440;-1.523826;0.089045
4.450;-1.505445;0.084269
4.460;-1.484207;0.078041
4.470;-1.461544;0.070439
4.480;-1.439223;0.061730
4.490;-1.418843;0.052381
4.500;-1.401446;0.043027
4.510;-1.387374;0.034352
4.520;-1.376367;0.026918
4.530;-1.367843;0.021042
4.540;-1.361238;0.016791
4.550;-1.356270;0.014087
4.560;-1.353043;0.012828
4.570;-1.351966;0.012944
4.580;-1.353520;0.014374
4.590;-1.357946;0.016978
4.600;-1.364955;0.020452
4.610;-1.373600;0.024290
4.620;-1.382411;0.027828
4.630;-1.389796;0.030374
4.640;-1.394577;0.031369
4.650;-1.396439;0.030558
4.660;-1.396104;0.028092
4.670;-1.395152;0.024552
4.680;-1.395536;0.020825
4.690;-1.398975;0.017858
4.700;-1.406476;0.016381
4.710;-1.418184;0.016690
4.720;-1.433587;0.018588
4.730;-1.451928;0.021483
4.740;-1.472579;0.024602
4.750;-1.495187;0.027213
4.760;-1.519544;0.028800
4.770;-1.545292;0.029129
4.780;-1.571650;0.028228
4.790;-1.597328;0.026305
4.800;-1.620730;0.023667
4.810;-1.640388;0.020678
4.820;-1.655460;0.017729
4.830;-1.666025;0.015196
4.840;-1.673049;0.013352
4.850;-1.677995;0.012275
4.860;-1.682282;0.011813
4.870;-1.686818;0.011586
4.880;-1.691776;0.011061
4.890;-1.696690;0.009671
4.900;-1.700772;0.006982
4.910;-1.703303;0.002872
4.920;-1.703912;-0.002373
4.930;-1.702675;-0.008071
4.940;-1.700024;-0.013317
4.950;-1.696547;-0.017233
4.960;-1.692766;-0.019226
4.970;-1.688985;-0.019176
4.980;-1.685268;-0.017477
4.990;-1.681529;-0.014955
5.000;-1.677671;-0.012657
5.010;-1.673684;-0.011585
5.020;-1.669686;-0.012436
5.030;-1.665914;-0.015416
5.040;-1.662674;-0.020175
5.050;-1.660272;-0.025878
5.060;-1.658926;-0.031433
5.070;-1.658663;-0.035827
5.080;-1.659225;-0.038499
5.090;-1.660035;-0.039600
5.100;-1.660271;-0.040003
5.110;-1.659094;-0.041003
5.120;-1.655952;-0.043828
5.130;-1.650831;-0.049164
5.140;-1.644292;-0.056928
5.150;-1.637222;-0.066364
5.160;-1.630413;-0.076384
5.170;-1.624193;-0.085932
5.180;-1.618308;-0.094233
5.190;-1.612101;-0.100865
5.200;-1.604899;-0.105726
5.210;-1.596413;-0.108975
5.220;-1.587000;-0.110978
5.230;-1.577643;-0.112240
5.240;-1.569667;-0.113325
5.250;-1.564264;-0.114734
5.260;-1.562032;-0.116776
5.270;-1.562694;-0.119461
5.280;-1.565128;-0.122468
5.290;-1.567691;-0.125236
5.300;-1.568741;-0.127138
5.310;-1.567161;-0.127673
5.320;-1.562708;-0.126601
5.330;-1.556076;-0.123999
5.340;-1.548681;-0.120251
5.350;-1.542240;-0.115970
5.360;-1.538277;-0.111849
5.370;-1.537699;-0.108471
5.380;-1.540561;-0.106113
5.390;-1.546101;-0.104665
5.400;-1.553028;-0.103680
5.410;-1.559955;-0.102560
5.420;-1.565784;-0.100793
5.430;-1.569943;-0.098138
5.440;-1.572404;-0.094699
5.450;-1.573561;-0.090843
5.460;-1.574063;-0.087053
5.470;-1.574642;-0.083773
5.480;-1.575979;-0.081329
5.490;-1.578561;-0.079908
5.500;-1.582558;-0.079558
5.510;-1.587732;-0.080188
5.520;-1.593446;-0.081608
5.530;-1.598833;-0.083601
5.540;-1.603076;-0.085957
5.550;-1.605723;-0.088428
5.560;-1.606851;-0.090629
5.570;-1.606973;-0.091994
5.580;-1.606729;-0.091866
5.590;-1.606526;-0.089720
5.600;-1.606333;-0.085414
5.610;-1.605716;-0.079333
5.620;-1.604098;-0.072315
5.630;-1.601085;-0.065385
5.640;-1.596672;-0.059432
5.650;-1.591240;-0.054994
5.660;-1.585373;-0.052213
5.670;-1.579607;-0.050924
5.680;-1.574236;-0.050798
5.690;-1.569250;-0.051454
5.700;-1.564368;-0.052538
5.710;-1.559162;-0.053760
5.720;-1.553213;-0.054897
5.730;-1.546274;-0.055767
5.740;-1.538396;-0.056181
5.750;-1.529941;-0.055921
5.760;-1.521476;-0.054803
5.770;-1.513586;-0.052804
5.780;-1.506688;-0.050152
5.790;-1.500919;-0.047296
5.800;-1.496123;-0.044746
5.810;-1.491936;-0.042869
5.820;-1.487940;-0.041760
5.830;-1.483841;-0.041242
5.840;-1.479618;-0.040972
5.850;-1.475568;-0.040560
5.860;-1.472233;-0.039646
5.870;-1.470245;-0.037916
5.880;-1.470152;-0.035090
5.890;-1.472255;-0.030947
5.900;-1.476485;-0.025414
5.910;-1.482340;-0.018651
5.920;-1.488938;-0.011066
5.930;-1.495191;-0.003239
5.940;-1.500061;0.004234
5.950;-1.502790;0.010873
5.960;-1.503066;0.016412
5.970;-1.501101;0.020835
5.980;-1.497615;0.024367
5.990;-1.493706;0.027444
6.000;-1.490614;0.030617
6.010;-1.489440;0.034405
6.020;-1.490901;0.039123
6.030;-1.495217;0.044794
6.040;-1.502105;0.051170
6.050;-1.510865;0.057880
6.060;-1.520488;0.064593
6.070;-1.529799;0.071117
6.080;-1.537639;0.077397
6.090;-1.543076;0.083429
6.100;-1.545583;0.089175
6.110;-1.545157;0.094535
6.120;-1.542321;0.099388
6.130;-1.538033;0.103640
6.140;-1.533490;0.107253
6.150;-1.529878;0.110222
6.160;-1.528091;0.112567
6.170;-1.528505;0.114327
6.180;-1.530869;0.115566
6.190;-1.534375;0.116335
6.200;-1.537912;0.116614
6.210;-1.540406;0.116286
6.220;-1.541098;0.115184
6.230;-1.539673;0.113189
6.240;-1.536234;0.110309
6.250;-1.531217;0.106698
6.260;-1.525299;0.102639
6.270;-1.519313;0.098494
6.280;-1.514114;0.094638
6.290;-1.510377;0.091353
6.300;-1.508386;0.088704
6.310;-1.507890;0.086455
6.320;-1.508145;0.084065
6.330;-1.508131;0.080821
6.340;-1.506911;0.076103
6.350;-1.503967;0.069696
6.360;-1.499398;0.062013
6.370;-1.493904;0.054069
6.380;-1.488586;0.047185
6.390;-1.484616;0.042541
6.400;-1.482911;0.040773
6.410;-1.483913;0.041795
6.420;-1.487507;0.044895
6.430;-1.493066;0.049030
6.440;-1.499566;0.053159
6.450;-1.505766;0.056494
6.460;-1.510458;0.058644
6.470;-1.512730;0.059633
6.480;-1.512178;0.059815
6.490;-1.508992;0.059699
6.500;-1.503894;0.059747
6.510;-1.497972;0.060227
6.520;-1.492461;0.061163
6.530;-1.488516;0.062390
6.540;-1.487025;0.063671
6.550;-1.488474;0.064835
6.560;-1.492893;0.065868
6.570;-1.499874;0.066926
6.580;-1.508637;0.068266
6.590;-1.518129;0.070120
6.600;-1.527152;0.072574
6.610;-1.534538;0.075507
6.620;-1.539377;0.078599
6.630;-1.541251;0.081432
6.640;-1.540402;0.083652
6.650;-1.537763;0.085112
6.660;-1.534790;0.085919
6.670;-1.533119;0.086359
6.680;-1.534138;0.086760
6.690;-1.538621;0.087375
6.700;-1.546525;0.088325
6.710;-1.557034;0.089631
6.720;-1.568801;0.091289
6.730;-1.580301;0.093312
6.740;-1.590183;0.095716
6.750;-1.597499;0.098443
6.760;-1.601823;0.101294
6.770;-1.603255;0.103914
6.780;-1.602388;0.105853
6.790;-1.600219;0.106692
6.800;-1.598007;0.106178
6.810;-1.597025;0.104336
6.820;-1.598248;0.101510
6.830;-1.602044;0.098300
6.840;-1.608018;0.095425
6.850;-1.615046;0.093527
6.860;-1.621540;0.092959
6.870;-1.625867;0.093655
6.880;-1.626837;0.095133
6.890;-1.624083;0.096659
6.900;-1.618206;0.097503
6.910;-1.610601;0.097176
6.920;-1.603062;0.095572
6.930;-1.597305;0.092968
6.940;-1.594554;0.089892
6.950;-1.595313;0.086947
6.960;-1.599336;0.084651
6.970;-1.605795;0.083353
6.980;-1.613555;0.083203
6.990;-1.621496;0.084157
7.000;-1.628777;0.086009
7.010;-1.635002;0.088454
7.020;-1.640214;0.091175
7.030;-1.644768;0.093928
7.040;-1.649114;0.096572
7.050;-1.653604;0.099026
7.060;-1.658355;0.101219
7.070;-1.663216;0.103069
7.080;-1.667824;0.104547
7.090;-1.671738;0.105752
7.100;-1.674629;0.106929
7.110;-1.676470;0.108393
7.120;-1.677650;0.110400
7.130;-1.678947;0.113033
7.140;-1.681360;0.116185
7.150;-1.685830;0.119643
7.160;-1.692946;0.123193
7.170;-1.702727;0.126675
7.180;-1.714576;0.129945
7.190;-1.727421;0.132790
7.200;-1.739976;0.134892
7.210;-1.751036;0.135891
7.220;-1.759715;0.135505
7.230;-1.765619;0.133625
7.240;-1.768951;0.130345
7.250;-1.770507;0.125920
7.260;-1.771497;0.120732
7.270;-1.773194;0.115269
7.280;-1.776508;0.110101
7.290;-1.781669;0.105832
7.300;-1.788164;0.102975
7.310;-1.794989;0.101802
7.320;-1.801092;0.102211
7.330;-1.805825;0.103680
7.340;-1.809226;0.105357
7.350;-1.812030;0.106315
7.360;-1.815453;0.105865
7.370;-1.820800;0.103797
7.380;-1.829030;0.100413
7.390;-1.840393;0.096335
7.400;-1.854287;0.092199
7.410;-1.869365;0.088371
7.420;-1.883905;0.084836
7.430;-1.896290;0.081291
7.440;-1.905430;0.077382
7.450;-1.910996;0.072976
7.460;-1.913434;0.068311
7.470;-1.913795;0.063950
7.480;-1.913460;0.060541
7.490;-1.913805;0.058495
7.500;-1.915890;0.057749
7.510;-1.920270;0.057751
7.520;-1.926987;0.057676
7.530;-1.935719;0.056738
7.540;-1.945965;0.054435
7.550;-1.957209;0.050629
7.560;-1.969018;0.045450
7.570;-1.981123;0.039152
7.580;-1.993434;0.031995
7.590;-2.005946;0.024231
7.600;-2.018559;0.016146
7.610;-2.030903;0.008118
7.620;-2.042306;0.000635
7.630;-2.051943;-0.005754
7.640;-2.059122;-0.010545
7.650;-2.063578;-0.013419
7.660;-2.065626;-0.014386
7.670;-2.066082;-0.013837
7.680;-2.065959;-0.012495
7.690;-2.066074;-0.011249
7.700;-2.066752;-0.010917
7.710;-2.067763;-0.011994
7.720;-2.068497;-0.014468
7.730;-2.068278;-0.017770
7.740;-2.066682;-0.020900
7.750;-2.063735;-0.022702
7.760;-2.059930;-0.022229
7.770;-2.056072;-0.019056
7.780;-2.053006;-0.013410
7.790;-2.051321;-0.006068
7.800;-2.051079;0.001917
7.810;-2.051649;0.009485
7.820;-2.051729;0.015737
7.830;-2.049666;0.020003
7.840;-2.044023;0.021884
7.850;-2.034216;0.021318
7.860;-2.020927;0.018651
7.870;-2.006025;0.014671
7.880;-1.992003;0.010492
7.890;-1.981144;0.007270
7.900;-1.974741;0.005807
7.910;-1.972687;0.006248
7.920;-1.973546;0.008044
