Time[s];COPx[cm];COPy[cm]
0.010;-0.997241;1.209759
0.020;-1.000584;1.227284
0.030;-1.001315;1.243001
0.040;-0.997385;1.255609
0.050;-0.987630;1.264496
0.060;-0.971930;1.269746
0.070;-0.951099;1.271995
0.080;-0.926546;1.272196
0.090;-0.899867;1.271363
0.100;-0.872469;1.270301
0.110;-0.845361;1.269423
0.120;-0.819124;1.268718
0.130;-0.794032;1.267918
0.140;-0.770219;1.266765
0.150;-0.747804;1.265220
0.160;-0.726906;1.263492
0.170;-0.707580;1.261878
0.180;-0.689729;1.260519
0.190;-0.673064;1.259247
0.200;-0.657172;1.257615
0.210;-0.641674;1.255067
0.220;-0.626411;1.251129
0.230;-0.611561;1.245486
0.240;-0.597641;1.237955
0.250;-0.585378;1.228408
0.260;-0.575484;1.216716
0.270;-0.568451;1.202730
0.280;-0.564418;1.186319
0.290;-0.563195;1.167451
0.300;-0.564391;1.146295
0.310;-0.567614;1.123302
0.320;-0.572631;1.099171
0.330;-0.579424;1.074676
0.340;-0.588117;1.050420
0.350;-0.598817;1.026670
0.360;-0.611460;1.003396
0.370;-0.625757;0.980468
0.380;-0.641283;0.957909
0.390;-0.657632;0.936047
0.400;-0.674528;0.915516
0.410;-0.691789;0.897119
0.420;-0.709203;0.881629
0.430;-0.726414;0.869602
0.440;-0.742925;0.861246
0.450;-0.758225;0.856368
0.460;-0.771957;0.854386
0.470;-0.784037;0.854391
0.480;-0.794635;0.855292
0.490;-0.804045;0.856038
0.500;-0.812525;0.855879
0.510;-0.820219;0.854588
0.520;-0.827185;0.852517
0.530;-0.833495;0.850453
0.540;-0.839331;0.849315
0.550;-0.844982;0.849830
0.560;-0.850742;0.852322
0.570;-0.856741;0.856658
0.580;-0.862826;0.862359
0.590;-0.868558;0.868783
0.600;-0.873366;0.875333
0.610;-0.876757;0.881615
0.620;-0.878501;0.887511
0.630;-0.878704;0.893154
0.640;-0.877757;0.898811
0.650;-0.876179;0.904720
0.660;-0.874416;0.910965
0.670;-0.872650;0.917444
0.680;-0.870707;0.923997
0.690;-0.868107;0.930609
0.700;-0.864268;0.937550
0.710;-0.858769;0.945360
0.720;-0.851587;0.954652
0.730;-0.843201;0.965842
0.740;-0.834533;0.978955
0.750;-0.826769;0.993603
0.760;-0.821119;1.009161
0.770;-0.818573;1.025004
0.780;-0.819691;1.040705
0.790;-0.824483;1.056097
0.800;-0.832387;1.071222
0.810;-0.842395;1.086219
0.820;-0.853278;1.101201
0.830;-0.863845;1.116156
0.840;-0.873196;1.130874
0.850;-0.880874;1.144902
0.860;-0.886884;1.157554
0.870;-0.891563;1.168010
0.880;-0.895382;1.175493
0.890;-0.898776;1.179486
0.900;-0.902067;1.179916
0.910;-0.905458;1.177244
0.920;-0.909065;1.172401
0.930;-0.912926;1.166566
0.940;-0.916999;1.160830
0.950;-0.921155;1.155893
0.960;-0.925186;1.151930
0.970;-0.928850;1.148677
0.980;-0.931916;1.145630
0.990;-0.934188;1.142271
1.000;-0.935516;1.138239
1.010;-0.935814;1.133444
1.020;-0.935095;1.128103
1.030;-0.933497;1.122684
1.040;-0.931252;1.117765
1.050;-0.928579;1.113878
1.060;-0.925538;1.111380
1.070;-0.921957;1.110377
1.080;-0.917485;1.110711
1.090;-0.911758;1.112010
1.100;-0.904587;1.113818
1.110;-0.896071;1.115730
1.120;-0.886570;1.117498
1.130;-0.876565;1.119031
1.140;-0.866454;1.120333
1.150;-0.856402;1.121427
1.160;-0.846311;1.122291
1.170;-0.835956;1.122871
1.180;-0.825171;1.123138
1.190;-0.814003;1.123190
1.200;-0.802727;1.123303
1.210;-0.791770;1.123889
1.220;-0.781607;1.125332
1.230;-0.772697;1.127768
1.240;-0.765463;1.130947
1.250;-0.760303;1.134250
1.260;-0.757572;1.136921
1.270;-0.757513;1.138382
1.280;-0.760147;1.138478
1.290;-0.765164;1.137550
1.300;-0.771882;1.136313
1.310;-0.779330;1.135600
1.320;-0.786447;1.136076
1.330;-0.792356;1.138021
1.340;-0.796622;1.141227
1.350;-0.799415;1.145043
1.360;-0.801476;1.148557
1.370;-0.803870;1.150883
1.380;-0.807575;1.151461
1.390;-0.813044;1.150261
1.400;-0.819940;1.147781
1.410;-0.827158;1.144862
1.420;-0.833150;1.142399
1.430;-0.836415;1.141047
1.440;-0.835966;1.140993
1.450;-0.831600;1.141891
1.460;-0.823913;1.142996
1.470;-0.814077;1.143477
1.480;-0.803507;1.142714
1.490;-0.793511;1.140435
1.500;-0.785031;1.136629
1.510;-0.778485;1.131404
1.520;-0.773726;1.124921
1.530;-0.770111;1.117465
1.540;-0.766686;1.109539
1.550;-0.762438;1.101849
1.560;-0.756571;1.095131
1.570;-0.748706;1.089892
1.580;-0.738943;1.086208
1.590;-0.727777;1.083690
1.600;-0.715913;1.081611
1.610;-0.704067;1.079116
1.620;-0.692808;1.075474
1.630;-0.682483;1.070304
1.640;-0.673213;1.063713
1.650;-0.664944;1.056238
1.660;-0.657516;1.048594
1.670;-0.650736;1.041358
1.680;-0.644433;1.034754
1.690;-0.638516;1.028670
1.700;-0.633019;1.022831
1.710;-0.628115;1.017005
1.720;-0.624091;1.011125
1.730;-0.621287;1.005286
1.740;-0.620010;0.999661
1.750;-0.620442;0.994389
1.760;-0.622522;0.989479
1.770;-0.625848;0.984805
1.780;-0.629645;0.980188
1.790;-0.632861;0.975524
1.800;-0.634396;0.970845
1.810;-0.633374;0.966276
1.820;-0.629368;0.961880
1.830;-0.622495;0.957526
1.840;-0.613341;0.952903
1.850;-0.602744;0.947694
1.860;-0.591543;0.941790
1.870;-0.580391;0.935377
1.880;-0.569683;0.928820
1.890;-0.559542;0.922433
1.900;-0.549816;0.916262
1.910;-0.540083;0.910033
1.920;-0.529723;0.903284
1.930;-0.518084;0.895622
1.940;-0.504706;0.886981
1.950;-0.489526;0.877752
1.960;-0.472978;0.868701
1.970;-0.455964;0.860705
1.980;-0.439659;0.854389
1.990;-0.425210;0.849816
2.000;-0.413411;0.846371
2.010;-0.404491;0.842897
2.020;-0.398099;0.838066
2.030;-0.393498;0.830815
2.040;-0.389885;0.820681
2.050;-0.386704;0.807940
2.060;-0.383832;0.793547
2.070;-0.381593;0.778912
2.080;-0.380607;0.765565
2.090;-0.381537;0.754793
2.100;-0.384839;0.747354
2.110;-0.390581;0.743357
2.120;-0.398399;0.742334
2.130;-0.407577;0.743455
2.140;-0.417209;0.745804
2.150;-0.426375;0.748644
2.160;-0.434282;0.751603
2.170;-0.440349;0.754732
2.180;-0.444244;0.758397
2.190;-0.445891;0.763046
2.200;-0.445459;0.768942
2.210;-0.443333;0.776007
2.220;-0.440064;0.783840
2.230;-0.436334;0.791861
2.240;-0.432937;0.799502
2.250;-0.430718;0.806348
2.260;-0.430415;0.812201
2.270;-0.432387;0.817059
2.280;-0.436348;0.821033
2.290;-0.441290;0.824223
2.300;-0.445719;0.826588
2.310;-0.448120;0.827873
2.320;-0.447455;0.827653
2.330;-0.443475;0.825496
2.340;-0.436726;0.821198
2.350;-0.428284;0.814983
2.360;-0.419377;0.807554
2.370;-0.411043;0.799932
2.380;-0.403917;0.793111
2.390;-0.398163;0.787648
2.400;-0.393560;0.783430
2.410;-0.389700;0.779753
2.420;-0.386243;0.775666
2.430;-0.383120;0.770401
2.440;-0.380634;0.763678
2.450;-0.379402;0.755780
2.460;-0.380172;0.747411
2.470;-0.383579;0.739406
2.480;-0.389921;0.732447
2.490;-0.399065;0.726871
2.500;-0.410500;0.722643
2.510;-0.423524;0.719457
2.520;-0.437468;0.716872
2.530;-0.451896;0.714462
2.540;-0.466669;0.711954
2.550;-0.481894;0.709359
2.560;-0.497769;0.707042
2.570;-0.514436;0.705650
2.580;-0.531901;0.705883
2.590;-0.550020;0.708165
2.600;-0.568532;0.712373
2.610;-0.587112;0.717772
2.620;-0.605409;0.723234
2.630;-0.623086;0.727633
2.640;-0.639848;0.730234
2.650;-0.655488;0.730885
2.660;-0.669947;0.729951
2.670;-0.683350;0.728072
2.680;-0.695983;0.725873
2.690;-0.708178;0.723767
2.700;-0.720185;0.721879
2.710;-0.732079;0.720094
2.720;-0.743779;0.718164
2.730;-0.755145;0.715842
2.740;-0.766074;0.712998
2.750;-0.776531;0.709686
2.760;-0.786513;0.706140
2.770;-0.795953;0.702707
2.780;-0.804629;0.699723
2.790;-0.812119;0.697355
2.800;-0.817830;0.695450
2.810;-0.821110;0.693487
2.820;-0.821396;0.690660
2.830;-0.818327;0.686096
2.840;-0.811789;0.679103
2.850;-0.801880;0.669382
2.860;-0.788858;0.657154
2.870;-0.773097;0.643183
2.880;-0.755087;0.628661
2.890;-0.735443;0.614961
2.900;-0.714905;0.603300
2.910;-0.694292;0.594442
2.920;-0.674412;0.588552
2.930;-0.655938;0.585274
2.940;-0.639299;0.583978
2.950;-0.624637;0.584058
2.960;-0.611859;0.585137
2.970;-0.600774;0.587093
2.980;-0.591259;0.589931
2.990;-0.583391;0.593585
3.000;-0.577457;0.597802
3.010;-0.573845;0.602225
3.020;-0.572851;0.606626
3.030;-0.574500;0.611122
3.040;-0.578466;0.616177
3.050;-0.584136;0.622374
3.060;-0.590814;0.630097
3.070;-0.597981;0.639300
3.080;-0.605518;0.649507
3.090;-0.613768;0.660000
3.100;-0.623401;0.670124
3.110;-0.635122;0.679526
3.120;-0.649323;0.688245
3.130;-0.665848;0.696606
3.140;-0.683977;0.705007
3.150;-0.702646;0.713739
3.160;-0.720826;0.722924
3.170;-0.737877;0.732580
3.180;-0.753732;0.742712
3.190;-0.768850;0.753344
3.200;-0.783974;0.764478
3.210;-0.799816;0.776017
3.220;-0.816799;0.787733
3.230;-0.834898;0.799330
3.240;-0.853650;0.810555
3.250;-0.872300;0.821295
3.260;-0.890042;0.831617
3.270;-0.906253;0.841716
3.280;-0.920627;0.851817
3.290;-0.933192;0.862064
3.300;-0.944266;0.872436
3.310;-0.954373;0.882734
3.320;-0.964134;0.892659
3.330;-0.974103;0.901947
3.340;-0.984580;0.910494
3.350;-0.995491;0.918425
3.360;-1.006405;0.926078
3.370;-1.016687;0.933869
3.380;-1.025728;0.942082
3.390;-1.033137;0.950679
3.400;-1.038827;0.959247
3.410;-1.043002;0.967124
3.420;-1.046085;0.973634
3.430;-1.048617;0.978301
3.440;-1.051144;0.980938
3.450;-1.054093;0.981587
3.460;-1.057680;0.980380
3.470;-1.061859;0.977429
3.480;-1.066352;0.972795
3.490;-1.070757;0.966564
3.500;-1.074688;0.958943
3.510;-1.077892;0.950307
3.520;-1.080301;0.941148
3.530;-1.082020;0.931957
3.540;-1.083276;0.923106
3.550;-1.084387;0.914797
3.560;-1.085729;0.907033
3.570;-1.087721;0.899595
3.580;-1.090792;0.892043
3.590;-1.095318;0.883797
3.600;-1.101548;0.874328
3.610;-1.109515;0.863390
3.620;-1.118983;0.851161
3.630;-1.129458;0.838198
3.640;-1.140251;0.825233
3.650;-1.150619;0.812918
3.660;-1.159914;0.801644
3.670;-1.167710;0.791509
3.680;-1.173862;0.782392
3.690;-1.178488;0.774051
3.700;-1.181893;0.766189
3.710;-1.184464;0.758490
3.720;-1.186564;0.750669
3.730;-1.188459;0.742527
3.740;-1.190295;0.733998
3.750;-1.192105;0.725129
3.760;-1.193833;0.716003
3.770;-1.195336;0.706635
3.780;-1.196389;0.696901
3.790;-1.196707;0.686531
3.800;-1.195971;0.675201
3.810;-1.193869;0.662674
3.820;-1.190142;0.648943
3.830;-1.184656;0.634276
3.840;-1.177483;0.619133
3.850;-1.168934;0.603983
3.860;-1.159498;0.589121
3.870;-1.149674;0.574540
3.880;-1.139768;0.559906
3.890;-1.129754;0.544640
3.900;-1.119285;0.528074
3.910;-1.107849;0.509644
3.920;-1.094969;0.489108
3.930;-1.080366;0.466721
3.940;-1.064005;0.443289
3.950;-1.046038;0.420056
3.960;-1.026700;0.398431
3.970;-1.006221;0.379666
3.980;-0.984794;0.364608
3.990;-0.962614;0.353617
4.000;-0.939961;0.346676
4.010;-0.917278;0.343613
4.020;-0.895178;0.344313
4.030;-0.874356;0.348789
4.040;-0.855434;0.357119
4.050;-0.838817;0.369328
4.060;-0.824652;0.385316
4.070;-0.812900;0.404876
4.080;-0.803482;0.427754
4.090;-0.796383;0.453687
4.100;-0.791651;0.482410
4.110;-0.789277;0.513607
4.120;-0.789070;0.546859
4.130;-0.790589;0.581594
4.140;-0.793214;0.617079
4.150;-0.796314;0.652490
4.160;-0.799426;0.687031
4.170;-0.802357;0.720105
4.180;-0.805164;0.751454
4.190;-0.808054;0.781218
4.200;-0.811280;0.809863
4.210;-0.815075;0.838016
4.220;-0.819646;0.866256
4.230;-0.825172;0.894956
4.240;-0.831761;0.924202
4.250;-0.839394;0.953781
4.260;-0.847869;0.983224
4.270;-0.856784;1.011885
4.280;-0.865571;1.039088
4.290;-0.873563;1.064302
4.300;-0.880087;1.087272
4.310;-0.884550;1.108044
4.320;-0.886520;1.126869
4.330;-0.885781;1.144054
4.340;-0.882355;1.159808
4.350;-0.876491;1.174153
4.360;-0.868573;1.186901
4.370;-0.859001;1.197723
4.380;-0.848073;1.206315
4.390;-0.835895;1.212583
4.400;-0.822338;1.216761
4.410;-0.807027;1.219378
4.420;-0.789419;1.221060
4.430;-0.768948;1.222274
4.440;-0.745237;1.223143
4.450;-0.718307;1.223404
4.460;-0.688695;1.222529
4.470;-0.657424;1.219974
4.480;-0.625836;1.215441
4.490;-0.595339;1.209056
4.500;-0.567165;1.201355
4.510;-0.542209;1.193050
4.520;-0.520976;1.184677
4.530;-0.503633;1.176320
4.540;-0.490116;1.167569
4.550;-0.480240;1.157747
4.560;-0.473752;1.146283
4.570;-0.470353;1.133023
4.580;-0.469703;1.118346
4.590;-0.471443;1.103034
4.600;-0.475214;1.087957
4.610;-0.480667;1.073725
4.620;-0.487449;1.060457
4.630;-0.495207;1.047778
4.640;-0.503637;1.035029
4.650;-0.512560;1.021558
4.660;-0.521965;1.006979
4.670;-0.531946;0.991293
4.680;-0.542548;0.974847
4.690;-0.553620;0.958181
4.700;-0.564797;0.941828
4.710;-0.575608;0.926181
4.720;-0.585666;0.911447
4.730;-0.594790;0.897654
4.740;-0.602986;0.884691
4.750;-0.610322;0.872350
4.760;-0.616798;0.860381
4.770;-0.622322;0.848576
4.780;-0.626777;0.836807
4.790;-0.630113;0.825049
4.800;-0.632398;0.813342
4.810;-0.633813;0.801750
4.820;-0.634613;0.790303
4.830;-0.635081;0.778983
4.840;-0.635468;0.767756
4.850;-0.635961;0.756643
4.860;-0.636671;0.745774
4.870;-0.637640;0.735386
4.880;-0.638840;0.725749
4.890;-0.640151;0.717034
4.900;-0.641316;0.709192
4.910;-0.641924;0.701910
4.920;-0.641448;0.694685
4.930;-0.639361;0.687021
4.940;-0.635293;0.678656
4.950;-0.629160;0.669743
4.960;-0.621202;0.660927
4.970;-0.611926;0.653256
4.980;-0.601970;0.647908
4.990;-0.591973;0.645795
5.000;-0.582479;0.647200
5.010;-0.573897;0.651662
5.020;-0.566491;0.658165
5.030;-0.560364;0.665580
5.040;-0.555467;0.673125
5.050;-0.551610;0.680632
5.060;-0.548497;0.688504
5.070;-0.545785;0.697414
5.080;-0.543165;0.707931
5.090;-0.540454;0.720246
5.100;-0.537655;0.734086
5.110;-0.534967;0.748819
5.120;-0.532732;0.763656
5.130;-0.531346;0.777864
5.140;-0.531159;0.790888
5.150;-0.532401;0.802375
5.160;-0.535129;0.812129
5.170;-0.539215;0.820091
5.180;-0.544343;0.826345
5.190;-0.550060;0.831135
5.200;-0.555843;0.834823
5.210;-0.561171;0.837793
5.220;-0.565566;0.840361
5.230;-0.568577;0.842735
5.240;-0.569766;0.845064
5.250;-0.568719;0.847511
5.260;-0.565115;0.850305
5.270;-0.558816;0.853711
5.280;-0.549944;0.857918
5.290;-0.538873;0.862890
5.300;-0.526140;0.868279
5.310;-0.512311;0.873463
5.320;-0.497874;0.877756
5.330;-0.483227;0.880698
5.340;-0.468729;0.882262
5.350;-0.454764;0.882849
5.360;-0.441758;0.883060
5.370;-0.430116;0.883380
5.380;-0.420139;0.883964
5.390;-0.411929;0.884605
5.400;-0.405356;0.884882
5.410;-0.400077;0.884386
5.420;-0.395648;0.882894
5.430;-0.391674;0.880448
5.440;-0.387962;0.877319
5.450;-0.384580;0.873908
5.460;-0.381793;0.870592
5.470;-0.379908;0.867576
5.480;-0.379123;0.864807
5.490;-0.379475;0.861975
5.500;-0.380878;0.858609
5.510;-0.383230;0.854250
5.520;-0.386473;0.848642
5.530;-0.390578;0.841858
5.540;-0.395442;0.834296
5.550;-0.400760;0.826519
5.560;-0.405969;0.819041
5.570;-0.410295;0.812150
5.580;-0.412894;0.805859
5.590;-0.413050;0.799970
5.600;-0.410371;0.794180
5.610;-0.404963;0.788181
5.620;-0.397505;0.781701
5.630;-0.389169;0.774523
5.640;-0.381336;0.766496
5.650;-0.375206;0.757579
5.660;-0.371467;0.747864
5.670;-0.370169;0.737578
5.680;-0.370849;0.727045
5.690;-0.372790;0.716613
5.700;-0.375297;0.706555
5.710;-0.377893;0.696961
5.720;-0.380404;0.687689
5.730;-0.382939;0.678404
5.740;-0.385803;0.668726
5.750;-0.389375;0.658407
5.760;-0.394030;0.647461
5.770;-0.400112;0.636186
5.780;-0.407939;0.625102
5.790;-0.417764;0.614819
5.800;-0.429692;0.605900
5.810;-0.443575;0.598731
5.820;-0.458967;0.593458
5.830;-0.475199;0.589955
5.840;-0.491566;0.587870
5.850;-0.507538;0.586723
5.860;-0.522877;0.586031
5.870;-0.537606;0.585377
5.880;-0.551842;0.584414
5.890;-0.565595;0.582855
5.900;-0.578661;0.580504
5.910;-0.590637;0.577336
5.920;-0.601036;0.573551
5.930;-0.609457;0.569566
5.940;-0.615741;0.565925
5.950;-0.620086;0.563154
5.960;-0.623054;0.561597
5.970;-0.625437;0.561292
5.980;-0.627996;0.561947
5.990;-0.631170;0.563043
6.000;-0.634909;0.564043
6.010;-0.638717;0.564609
6.020;-0.641884;0.564734
6.030;-0.643775;0.564734
6.040;-0.644067;0.565129
6.050;-0.642813;0.566459
6.060;-0.640335;0.569092
6.070;-0.637013;0.573078
6.080;-0.633082;0.578139
6.090;-0.628572;0.583808
6.100;-0.623368;0.589634
6.110;-0.617334;0.595357
6.120;-0.610401;0.600981
6.130;-0.602585;0.606748
6.140;-0.593966;0.613042
6.150;-0.584676;0.620255
6.160;-0.574885;0.628632
6.170;-0.564780;0.638174
6.180;-0.554522;0.648639
6.190;-0.544207;0.659677
6.200;-0.533854;0.671016
6.210;-0.523434;0.682597
6.220;-0.512920;0.694551
6.230;-0.502331;0.707057
6.240;-0.491742;0.720164
6.250;-0.481268;0.733678
6.260;-0.471026;0.747194
6.270;-0.461087;0.760239
6.280;-0.451440;0.772453
6.290;-0.442009;0.783706
6.300;-0.432735;0.794077
6.310;-0.423736;0.803688
6.320;-0.415462;0.812514
6.330;-0.408751;0.820312
6.340;-0.404685;0.826725
6.350;-0.404293;0.831514
6.360;-0.408211;0.834749
6.370;-0.416467;0.836829
6.380;-0.428463;0.838310
6.390;-0.443159;0.839641
6.400;-0.459349;0.840982
6.410;-0.475923;0.842201
6.420;-0.492046;0.843030
6.430;-0.507231;0.843239
6.440;-0.521343;0.842730
6.450;-0.534542;0.841545
6.460;-0.547192;0.839808
6.470;-0.559747;0.837678
6.480;-0.572646;0.835299
6.490;-0.586237;0.832783
6.500;-0.600736;0.830231
6.510;-0.616213;0.827753
6.520;-0.632571;0.825472
6.530;-0.649511;0.823498
6.540;-0.666524;0.821913
6.550;-0.682944;0.820807
6.560;-0.698087;0.820312
6.570;-0.711390;0.820604
6.580;-0.722506;0.821825
6.590;-0.731314;0.823979
6.600;-0.737861;0.826872
6.610;-0.742311;0.830142
6.620;-0.744929;0.833343
6.630;-0.746088;0.836078
6.640;-0.746261;0.838125
6.650;-0.745968;0.839493
6.660;-0.745681;0.840398
6.670;-0.745710;0.841134
6.680;-0.746099;0.841896
6.690;-0.746589;0.842609
6.700;-0.746677;0.842845
6.710;-0.745789;0.841875
6.720;-0.743520;0.838873
6.730;-0.739822;0.833236
6.740;-0.735076;0.824903
6.750;-0.730021;0.814528
6.760;-0.725584;0.803385
6.770;-0.722685;0.793006
6.780;-0.722055;0.784699
6.790;-0.724101;0.779131
6.800;-0.728829;0.776152
6.810;-0.735847;0.774907
6.820;-0.744497;0.774188
6.830;-0.754063;0.772896
6.840;-0.763998;0.770433
6.850;-0.774031;0.766905
6.860;-0.784133;0.763048
6.870;-0.794390;0.759906
6.880;-0.804868;0.758414
6.890;-0.815553;0.759048
6.900;-0.826366;0.761675
6.910;-0.837192;0.765638
6.920;-0.847883;0.769998
6.930;-0.858226;0.773826
6.940;-0.867929;0.776454
6.950;-0.876665;0.777583
6.960;-0.884174;0.777240
6.970;-0.890327;0.775620
6.980;-0.895127;0.772893
6.990;-0.898638;0.769099
7.000;-0.900918;0.764168
7.010;-0.901992;0.758052
7.020;-0.901889;0.750865
7.030;-0.900711;0.742941
7.040;-0.898697;0.734757
7.050;-0.896217;0.726781
7.060;-0.893680;0.719347
7.070;-0.891372;0.712617
7.080;-0.889314;0.706635
7.090;-0.887218;0.701398
7.100;-0.884557;0.696898
7.110;-0.880734;0.693117
7.120;-0.875267;0.689986
7.130;-0.867947;0.687362
7.140;-0.858934;0.685055
7.150;-0.848772;0.682936
7.160;-0.838306;0.681066
7.170;-0.828497;0.679714
7.180;-0.820191;0.679212
7.190;-0.813898;0.679730
7.200;-0.809695;0.681129
7.210;-0.807239;0.682996
7.220;-0.805893;0.684828
7.230;-0.804892;0.686237
7.240;-0.803515;0.687041
7.250;-0.801238;0.687236
7.260;-0.797836;0.686906
7.270;-0.793435;0.686151
7.280;-0.788492;0.685077
7.290;-0.783697;0.683816
7.300;-0.779799;0.682550
7.310;-0.777390;0.681484
7.320;-0.776706;0.680768
7.330;-0.777561;0.680399
7.340;-0.779421;0.680176
7.350;-0.781606;0.679761
7.360;-0.783471;0.678840
7.370;-0.784494;0.677272
7.380;-0.784291;0.675160
7.390;-0.782597;0.672794
7.400;-0.779251;0.670544
7.410;-0.774199;0.668760
7.420;-0.767494;0.667687
7.430;-0.759287;0.667404
7.440;-0.749806;0.667781
7.450;-0.739331;0.668494
7.460;-0.728182;0.669139
7.470;-0.716738;0.669389
7.480;-0.705472;0.669152
7.490;-0.694937;0.668647
7.500;-0.685673;0.668385
7.510;-0.678017;0.669033
7.520;-0.671929;0.671188
7.530;-0.666931;0.675122
7.540;-0.662227;0.680598
7.550;-0.656954;0.686882
7.560;-0.650447;0.692997
7.570;-0.642409;0.698110
7.580;-0.632941;0.701841
7.590;-0.622447;0.704350
7.600;-0.611464;0.706178
7.610;-0.600496;0.707983
7.620;-0.589910;0.710293
7.630;-0.579946;0.713374
7.640;-0.570779;0.717216
7.650;-0.562592;0.721605
7.660;-0.555577;0.726233
7.670;-0.549886;0.730812
7.680;-0.545559;0.735148
7.690;-0.542501;0.739167
7.700;-0.540501;0.742896
7.710;-0.539302;0.746423
7.720;-0.538662;0.749851
7.730;-0.538406;0.753262
7.740;-0.538458;0.756696
7.750;-0.538873;0.760157
7.760;-0.539840;0.763637
7.770;-0.541651;0.767116
7.780;-0.544628;0.770563
7.790;-0.549031;0.773937
7.800;-0.554984;0.777230
7.810;-0.562430;0.780534
7.820;-0.571110;0.784053
7.830;-0.580565;0.788057
7.840;-0.590176;0.792771
7.850;-0.599257;0.798280
7.860;-0.607165;0.804475
7.870;-0.613393;0.811055
7.880;-0.617605;0.817551
7.890;-0.619631;0.823387
7.900;-0.619466;0.827985
7.910;-0.617293;0.830906
7.920;-0.613501;0.831990
7.930;-0.608653;0.831406
7.940;-0.603397;0.829585
7.950;-0.598337;0.827063
7.960;-0.593923;0.824305
7.970;-0.590397;0.821598
7.980;-0.587763;0.819051
