Time[s];COPx[cm];COPy[cm]
0.010;3.444245;0.304686
0.020;3.448365;0.281118
0.030;3.454504;0.259501
0.040;3.463913;0.241344
0.050;3.476725;0.227453
0.060;3.492067;0.217892
0.070;3.508627;0.212090
0.080;3.525400;0.208979
0.090;3.542270;0.207099
0.100;3.560196;0.204687
0.110;3.580938;0.199831
0.120;3.606439;0.190780
0.130;3.638152;0.176376
0.140;3.676575;0.156445
0.150;3.721154;0.131932
0.160;3.770519;0.104618
0.170;3.822891;0.076565
0.180;3.876476;0.049540
0.190;3.929724;0.024719
0.200;3.981470;0.002708
0.210;4.030970;-0.016237
0.220;4.077912;-0.032018
0.230;4.122360;-0.044640
0.240;4.164650;-0.054263
0.250;4.205204;-0.061232
0.260;4.244296;-0.065993
0.270;4.281833;-0.068917
0.280;4.317282;-0.070164
0.290;4.349823;-0.069671
0.300;4.378737;-0.067308
0.310;4.403866;-0.063103
0.320;4.425929;-0.057427
0.330;4.446490;-0.051039
0.340;4.467553;-0.045007
0.350;4.490931;-0.040550
0.360;4.517652;-0.038859
0.370;4.547658;-0.040888
0.380;4.579920;-0.047141
0.390;4.612878;-0.057500
0.400;4.644982;-0.071181
0.410;4.675103;-0.086886
0.420;4.702646;-0.103120
0.430;4.727388;-0.118533
0.440;4.749217;-0.132145
0.450;4.767941;-0.143363
0.460;4.783279;-0.151845
0.470;4.794974;-0.157364
0.480;4.802913;-0.159780
0.490;4.807131;-0.159112
0.500;4.807700;-0.155655
0.510;4.804594;-0.150071
0.520;4.797639;-0.143379
0.530;4.786606;-0.136849
0.540;4.771370;-0.131789
0.550;4.752036;-0.129324
0.560;4.728918;-0.130212
0.570;4.702415;-0.134779
0.580;4.672868;-0.142952
0.590;4.640511;-0.154357
0.600;4.605529;-0.168433
0.610;4.568161;-0.184539
0.620;4.528785;-0.202054
0.630;4.487930;-0.220465
0.640;4.446246;-0.239416
0.650;4.404442;-0.258689
0.660;4.363234;-0.278123
0.670;4.323253;-0.297510
0.680;4.284920;-0.316559
0.690;4.248293;-0.334965
0.700;4.212994;-0.352537
0.710;4.178268;-0.369279
0.720;4.143175;-0.385332
0.730;4.106816;-0.400803
0.740;4.068505;-0.415581
0.750;4.027816;-0.429283
0.760;3.984505;-0.441338
0.770;3.938383;-0.451167
0.780;3.889188;-0.458322
0.790;3.836542;-0.462551
0.800;3.779981;-0.463774
0.810;3.719036;-0.462060
0.820;3.653316;-0.457661
0.830;3.582589;-0.451071
0.840;3.506854;-0.443048
0.850;3.426419;-0.434499
0.860;3.341934;-0.426252
0.870;3.254352;-0.418767
0.880;3.164818;-0.411935
0.890;3.074540;-0.405089
0.900;2.984706;-0.397224
0.910;2.896478;-0.387344
0.920;2.810980;-0.374796
0.930;2.729185;-0.359464
0.940;2.651673;-0.341796
0.950;2.578364;-0.322655
0.960;2.508411;-0.303060
0.970;2.440307;-0.283900
0.980;2.372188;-0.265695
0.990;2.302213;-0.248475
1.000;2.229000;-0.231777
1.010;2.152106;-0.214786
1.020;2.072508;-0.196594
1.030;1.992884;-0.176507
1.040;1.917438;-0.154335
1.050;1.851135;-0.130580
1.060;1.798515;-0.106492
1.070;1.762471;-0.083920
1.080;1.743459;-0.064917
1.090;1.739420;-0.051167
1.100;1.746435;-0.043427
1.110;1.759860;-0.041243
1.120;1.775518;-0.043083
1.130;1.790597;-0.046823
1.140;1.804022;-0.050373
1.150;1.816325;-0.052200
1.160;1.829153;-0.051579
1.170;1.844630;-0.048544
1.180;1.864794;-0.043620
1.190;1.891239;-0.037494
1.200;1.924999;-0.030763
1.210;1.966618;-0.023834
1.220;2.016279;-0.016987
1.230;2.073920;-0.010524
1.240;2.139297;-0.004928
1.250;2.212035;-0.000930
1.260;2.291694;0.000554
1.270;2.377875;-0.001436
1.280;2.470299;-0.007755
1.290;2.568833;-0.019105
1.300;2.673389;-0.036041
1.310;2.783690;-0.058968
1.320;2.898945;-0.088062
1.330;3.017559;-0.123142
1.340;3.137050;-0.163575
1.350;3.254260;-0.208278
1.360;3.365879;-0.255846
1.370;3.469149;-0.304726
1.380;3.562526;-0.353390
1.390;3.646089;-0.400478
1.400;3.721548;-0.444926
1.410;3.791889;-0.486080
1.420;3.860774;-0.523753
1.430;3.931867;-0.558161
1.440;4.008191;-0.589757
1.450;4.091588;-0.619045
1.460;4.182332;-0.646438
1.470;4.278999;-0.672185
1.480;4.378715;-0.696372
1.490;4.477762;-0.718962
1.500;4.572386;-0.739822
1.510;4.659495;-0.758733
1.520;4.737021;-0.775386
1.530;4.803907;-0.789417
1.540;4.859851;-0.800496
1.550;4.904996;-0.808436
1.560;4.939741;-0.813271
1.570;4.964717;-0.815284
1.580;4.980832;-0.814963
1.590;4.989259;-0.812930
1.600;4.991268;-0.809835
1.610;4.987930;-0.806228
1.620;4.979855;-0.802418
1.630;4.967106;-0.798368
1.640;4.949355;-0.793683
1.650;4.926213;-0.787767
1.660;4.897542;-0.780095
1.670;4.863623;-0.770494
1.680;4.825145;-0.759261
1.690;4.783047;-0.747029
1.700;4.738300;-0.734407
1.710;4.691683;-0.721603
1.720;4.643625;-0.708243
1.730;4.594163;-0.693531
1.740;4.543076;-0.676697
1.750;4.490203;-0.657495
1.760;4.435841;-0.636495
1.770;4.381075;-0.614999
1.780;4.327845;-0.594648
1.790;4.278667;-0.576928
1.800;4.236049;-0.562812
1.810;4.201812;-0.552626
1.820;4.176571;-0.546141
1.830;4.159589;-0.542791
1.840;4.149048;-0.541907
1.850;4.142613;-0.542874
1.860;4.138041;-0.545172
1.870;4.133590;-0.548316
1.880;4.128132;-0.551780
1.890;4.121009;-0.554989
1.900;4.111807;-0.557404
1.910;4.100169;-0.558673
1.920;4.085738;-0.558770
1.930;4.068209;-0.558044
1.940;4.047449;-0.557125
1.950;4.023639;-0.556695
1.960;3.997367;-0.557188
1.970;3.969651;-0.558596
1.980;3.941872;-0.560459
1.990;3.915587;-0.562079
2.000;3.892283;-0.562832
2.010;3.873086;-0.562427
2.020;3.858511;-0.560990
2.030;3.848324;-0.558966
2.040;3.841585;-0.556941
2.050;3.836903;-0.555486
2.060;3.832834;-0.555054
2.070;3.828302;-0.555908
2.080;3.822882;-0.558035
2.090;3.816848;-0.561110
2.100;3.810943;-0.564545
2.110;3.805961;-0.567653
2.120;3.802319;-0.569816
2.130;3.799811;-0.570609
2.140;3.797657;-0.569824
2.150;3.794819;-0.567430
2.160;3.790430;-0.563469
2.170;3.784142;-0.557946
2.180;3.776277;-0.550759
2.190;3.767709;-0.541710
2.200;3.759586;-0.530603
2.210;3.752986;-0.517333
2.220;3.748667;-0.501921
2.230;3.746995;-0.484502
2.240;3.748042;-0.465352
2.250;3.751764;-0.444965
2.260;3.758146;-0.424145
2.270;3.767221;-0.404022
2.280;3.779016;-0.385936
2.290;3.793494;-0.371156
2.300;3.810548;-0.360514
2.310;3.830015;-0.354102
2.320;3.851648;-0.351207
2.330;3.875012;-0.350560
2.340;3.899374;-0.350777
2.350;3.923659;-0.350790
2.360;3.946568;-0.350091
2.370;3.966792;-0.348749
2.380;3.983241;-0.347279
2.390;3.995218;-0.346434
2.400;4.002540;-0.347003
2.410;4.005593;-0.349612
2.420;4.005324;-0.354572
2.430;4.003139;-0.361783
2.440;4.000671;-0.370749
2.450;3.999447;-0.380733
2.460;4.000517;-0.391007
2.470;4.004186;-0.401069
2.480;4.009950;-0.410761
2.490;4.016654;-0.420238
2.500;4.022816;-0.429818
2.510;4.026998;-0.439790
2.520;4.028144;-0.450239
2.530;4.025816;-0.460961
2.540;4.020278;-0.471490
2.550;4.012416;-0.481244
2.560;4.003494;-0.489746
2.570;3.994778;-0.496859
2.580;3.987154;-0.502902
2.590;3.980841;-0.508589
2.600;3.975346;-0.514765
2.610;3.969693;-0.522092
2.620;3.962863;-0.530811
2.630;3.954293;-0.540705
2.640;3.944227;-0.551220
2.650;3.933727;-0.561666
2.660;3.924298;-0.571424
2.670;3.917272;-0.580093
2.680;3.913204;-0.587558
2.690;3.911572;-0.593968
2.700;3.910937;-0.599636
2.710;3.909497;-0.604892
2.720;3.905804;-0.609951
2.730;3.899284;-0.614826
2.740;3.890333;-0.619317
2.750;3.879988;-0.623069
2.760;3.869354;-0.625693
2.770;3.859089;-0.626953
2.780;3.849190;-0.626982
2.790;3.839154;-0.626422
2.800;3.828373;-0.626376
2.810;3.816532;-0.628108
2.820;3.803764;-0.632574
2.830;3.790538;-0.639995
2.840;3.777375;-0.649690
2.850;3.764587;-0.660232
2.860;3.752174;-0.669860
2.870;3.739924;-0.676977
2.880;3.727628;-0.680550
2.890;3.715311;-0.680316
2.900;3.703376;-0.676780
2.910;3.692607;-0.671050
2.920;3.684053;-0.664589
2.930;3.678786;-0.658918
2.940;3.677619;-0.655349
2.950;3.680836;-0.654768
2.960;3.688009;-0.657472
2.970;3.697976;-0.663074
2.980;3.709028;-0.670533
2.990;3.719331;-0.678366
3.000;3.727436;-0.684977
3.010;3.732696;-0.688971
3.020;3.735393;-0.689334
3.030;3.736547;-0.685450
3.040;3.737484;-0.677041
3.050;3.739361;-0.664097
3.060;3.742797;-0.646823
3.070;3.747737;-0.625618
3.080;3.753562;-0.601082
3.090;3.759401;-0.574013
3.100;3.764508;-0.545392
3.110;3.768513;-0.516280
3.120;3.771432;-0.487619
3.130;3.773490;-0.460004
3.140;3.774908;-0.433537
3.150;3.775832;-0.407867
3.160;3.776407;-0.382412
3.170;3.776897;-0.356648
3.180;3.777731;-0.330343
3.190;3.779425;-0.303616
3.200;3.782434;-0.276852
3.210;3.787037;-0.250554
3.220;3.793287;-0.225214
3.230;3.801073;-0.201246
3.240;3.810222;-0.178939
3.250;3.820563;-0.158405
3.260;3.831899;-0.139519
3.270;3.843918;-0.121883
3.280;3.856130;-0.104848
3.290;3.867940;-0.087621
3.300;3.878865;-0.069454
3.310;3.888814;-0.049870
3.320;3.898316;-0.028806
3.330;3.908539;-0.006603
3.340;3.921058;0.016139
3.350;3.937448;0.038739
3.360;3.958841;0.060565
3.370;3.985578;0.081085
3.380;4.017048;0.099877
3.390;4.051735;0.116676
3.400;4.087483;0.131442
3.410;4.121945;0.144410
3.420;4.153105;0.156018
3.430;4.179730;0.166704
3.440;4.201604;0.176657
3.450;4.219483;0.185671
3.460;4.234811;0.193197
3.470;4.249270;0.198555
3.480;4.264299;0.201197
3.490;4.280717;0.200901
3.500;4.298555;0.197858
3.510;4.317121;0.192639
3.520;4.335234;0.186043
3.530;4.351521;0.178844
3.540;4.364694;0.171516
3.550;4.373749;0.164043
3.560;4.378100;0.155899
3.570;4.377626;0.146247
3.580;4.372647;0.134270
3.590;4.363811;0.119486
3.600;4.351934;0.101880
3.610;4.337874;0.081830
3.620;4.322455;0.059908
3.630;4.306428;0.036694
3.640;4.290400;0.012649
3.650;4.274698;-0.011925
3.660;4.259246;-0.036842
3.670;4.243530;-0.061929
3.680;4.226732;-0.086910
3.690;4.207984;-0.111355
3.700;4.186666;-0.134754
3.710;4.162603;-0.156693
3.720;4.136104;-0.177060
3.730;4.107845;-0.196178
3.740;4.078661;-0.214788
3.750;4.049341;-0.233865
3.760;4.020477;-0.254324
3.770;3.992373;-0.276697
3.780;3.964963;-0.300930
3.790;3.937763;-0.326364
3.800;3.909908;-0.351903
3.810;3.880330;-0.376303
3.820;3.848062;-0.398469
3.830;3.812565;-0.417715
3.840;3.773953;-0.433929
3.850;3.733011;-0.447569
3.860;3.691001;-0.459477
3.870;3.649319;-0.470537
3.880;3.609137;-0.481363
3.890;3.571128;-0.492170
3.900;3.535338;-0.502867
3.910;3.501229;-0.513271
3.920;3.467855;-0.523268
3.930;3.434133;-0.532840
3.940;3.399101;-0.541978
3.950;3.362105;-0.550552
3.960;3.322872;-0.558260
3.970;3.281514;-0.564680
3.980;3.238502;-0.569428
3.990;3.194688;-0.572370
4.000;3.151314;-0.573767
4.010;3.109962;-0.574249
4.020;3.072330;-0.574563
4.030;3.039879;-0.575205
4.040;3.013404;-0.576104
4.050;2.992723;-0.576565
4.060;2.976614;-0.575502
4.070;2.963121;-0.571872
4.080;2.950155;-0.565080
4.090;2.936186;-0.555145
4.100;2.920739;-0.542564
4.110;2.904492;-0.528009
4.120;2.888986;-0.512058
4.130;2.876082;-0.495116
4.140;2.867414;-0.477488
4.150;2.863997;-0.459506
4.160;2.866079;-0.441590
4.170;2.873199;-0.424192
4.180;2.884395;-0.407626
4.190;2.898507;-0.391878
4.200;2.914491;-0.376493
4.210;2.931692;-0.360638
4.220;2.950001;-0.343338
4.230;2.969821;-0.323797
4.240;2.991822;-0.301669
4.250;3.016568;-0.277193
4.260;3.044174;-0.251130
4.270;3.074136;-0.224493
4.280;3.105401;-0.198169
4.290;3.136640;-0.172577
4.300;3.166592;-0.147554
4.310;3.194365;-0.122538
4.320;3.219568;-0.096984
4.330;3.242277;-0.070828
4.340;3.262876;-0.044756
4.350;3.281867;-0.020124
4.360;3.299725;0.001474
4.370;3.316856;0.018807
4.380;3.333679;0.031465
4.390;3.350807;0.039989
4.400;3.369236;0.045613
4.410;3.390408;0.049769
4.420;3.416045;0.053573
4.430;3.447750;0.057489
4.440;3.486452;0.061267
4.450;3.531906;0.064143
4.460;3.582448;0.065210
4.470;3.635165;0.063824
4.480;3.686440;0.059898
4.490;3.732687;0.053963
4.500;3.771066;0.046944
4.510;3.799950;0.039743
4.520;3.819074;0.032816
4.530;3.829377;0.025960
4.540;3.832635;0.018393
4.550;3.831008;0.009099
4.560;3.826609;-0.002757
4.570;3.821148;-0.017520
4.580;3.815726;-0.034935
4.590;3.810800;-0.054229
4.600;3.806320;-0.074297
4.610;3.801996;-0.093942
4.620;3.797579;-0.112133
4.630;3.793080;-0.128288
4.640;3.788835;-0.142507
4.650;3.785419;-0.155652
4.660;3.783440;-0.169167
4.670;3.783333;-0.184624
4.680;3.785216;-0.203172
4.690;3.788853;-0.225078
4.700;3.793664;-0.249578
4.710;3.798778;-0.275092
4.720;3.803118;-0.299745
4.730;3.805575;-0.321953
4.740;3.805241;-0.340829
4.750;3.801677;-0.356247
4.760;3.795113;-0.368594
4.770;3.786526;-0.378435
4.780;3.777526;-0.386299
4.790;3.770025;-0.392677
4.800;3.765770;-0.398109
4.810;3.765872;-0.403210
4.820;3.770535;-0.408576
4.830;3.779117;-0.414633
4.840;3.790486;-0.421564
4.850;3.803478;-0.429369
4.860;3.817217;-0.437989
4.870;3.831178;-0.447405
4.880;3.845040;-0.457634
4.890;3.858505;-0.468634
4.900;3.871209;-0.480181
4.910;3.882814;-0.491773
4.920;3.893184;-0.502641
4.930;3.902550;-0.511865
4.940;3.911534;-0.518562
4.950;3.921033;-0.522045
4.960;3.931991;-0.521914
4.970;3.945153;-0.518069
4.980;3.960873;-0.510678
4.990;3.979047;-0.500152
5.000;3.999165;-0.487130
5.010;4.020441;-0.472443
5.020;4.041936;-0.457034
5.030;4.062700;-0.441810
5.040;4.081909;-0.427454
5.050;4.099011;-0.414257
5.060;4.113774;-0.402039
5.070;4.126206;-0.390215
5.080;4.136387;-0.378001
5.090;4.144325;-0.364687
5.100;4.149910;-0.349857
5.110;4.152965;-0.333452
5.120;4.153353;-0.315688
5.130;4.151094;-0.296889
5.140;4.146454;-0.277332
5.150;4.139959;-0.257178
5.160;4.132318;-0.236488
5.170;4.124249;-0.215329
5.180;4.116263;-0.193909
5.190;4.108500;-0.172656
5.200;4.100679;-0.152214
5.210;4.092218;-0.133306
5.220;4.082501;-0.116564
5.230;4.071167;-0.102368
5.240;4.058284;-0.090804
5.250;4.044293;-0.081740
5.260;4.029764;-0.074977
5.270;4.015086;-0.070397
5.280;4.000270;-0.068020
5.290;3.984928;-0.067955
5.300;3.968438;-0.070271
5.310;3.950191;-0.074854
5.320;3.929828;-0.081301
5.330;3.907390;-0.088929
5.340;3.883354;-0.096926
5.350;3.858549;-0.104630
5.360;3.833982;-0.111779
5.370;3.810620;-0.118587
5.380;3.789224;-0.125585
5.390;3.770293;-0.133331
5.400;3.754099;-0.142134
5.410;3.740746;-0.151928
5.420;3.730192;-0.162301
5.430;3.722218;-0.172653
5.440;3.716392;-0.182416
5.450;3.712076;-0.191243
5.460;3.708531;-0.199120
5.470;3.705096;-0.206324
5.480;3.701396;-0.213294
5.490;3.697478;-0.220480
5.500;3.693825;-0.228232
5.510;3.691197;-0.236731
5.520;3.690369;-0.245949
5.530;3.691867;-0.255699
5.540;3.695845;-0.265787
5.550;3.702137;-0.276213
5.560;3.710436;-0.287253
5.570;3.720469;-0.299310
5.580;3.732068;-0.312606
5.590;3.745132;-0.326903
5.600;3.759546;-0.341456
5.610;3.775117;-0.355220
5.620;3.791539;-0.367183
5.630;3.808363;-0.376688
5.640;3.824979;-0.383601
5.650;3.840645;-0.388298
5.660;3.854584;-0.391469
5.670;3.866129;-0.393812
5.680;3.874866;-0.395757
5.690;3.880737;-0.397352
5.700;3.884064;-0.398363
5.710;3.885524;-0.398532
5.720;3.886048;-0.397808
5.730;3.886652;-0.396409
5.740;3.888203;-0.394677
5.750;3.891184;-0.392854
5.760;3.895539;-0.390921
5.770;3.900707;-0.388603
5.780;3.905840;-0.385492
5.790;3.910109;-0.381257
5.800;3.912913;-0.375816
5.810;3.913922;-0.369389
5.820;3.912948;-0.362412
5.830;3.909817;-0.355353
5.840;3.904322;-0.348540
5.850;3.896294;-0.342079
5.860;3.885720;-0.335863
5.870;3.872828;-0.329649
5.880;3.858065;-0.323121
5.890;3.842007;-0.315899
5.900;3.825237;-0.307466
5.910;3.808252;-0.297107
5.920;3.791391;-0.283961
5.930;3.774761;-0.267255
5.940;3.758165;-0.246636
5.950;3.741106;-0.222435
5.960;3.722928;-0.195727
5.970;3.703074;-0.168141
5.980;3.681342;-0.141458
5.990;3.658028;-0.117139
6.000;3.633861;-0.095968
6.010;3.609768;-0.077954
6.020;3.586584;-0.062469
6.030;3.564815;-0.048500
6.040;3.544535;-0.034878
6.050;3.525439;-0.020458
6.060;3.507028;-0.004281
6.070;3.488867;0.014240
6.080;3.470801;0.035161
6.090;3.453049;0.057968
6.100;3.436112;0.081711
6.110;3.420535;0.105271
6.120;3.406653;0.127638
6.130;3.394501;0.148090
6.140;3.383923;0.166250
6.150;3.374805;0.182058
6.160;3.367265;0.195718
6.170;3.361664;0.207613
6.180;3.358432;0.218210
6.190;3.357797;0.227958
6.200;3.359592;0.237188
6.210;3.363233;0.246012
6.220;3.367942;0.254227
6.230;3.373081;0.261279
6.240;3.378456;0.266356
6.250;3.384420;0.268625
6.260;3.391731;0.267524
6.270;3.401233;0.262988
6.280;3.413488;0.255490
6.290;3.428504;0.245913
6.300;3.445630;0.235310
6.310;3.463684;0.224650
6.320;3.481260;0.214629
6.330;3.497138;0.205578
6.340;3.510635;0.197474
6.350;3.521800;0.190036
6.360;3.531366;0.182876
6.370;3.540480;0.175647
6.380;3.550314;0.168117
6.390;3.561717;0.160132
6.400;3.575022;0.151523
6.410;3.590071;0.142003
6.420;3.606404;0.131085
6.430;3.623531;0.118043
6.440;3.641166;0.101943
6.450;3.659344;0.081794
6.460;3.678330;0.056811
6.470;3.698377;0.026686
6.480;3.719437;-0.008251
6.490;3.740999;-0.047023
6.500;3.762142;-0.088125
6.510;3.781799;-0.129728
6.520;3.799102;-0.169982
6.530;3.813628;-0.207372
6.540;3.825471;-0.241058
6.550;3.835115;-0.271060
6.560;3.843220;-0.298153
6.570;3.850449;-0.323500
6.580;3.857383;-0.348169
6.590;3.864526;-0.372790
6.600;3.872286;-0.397483
6.610;3.880882;-0.422021
6.620;3.890183;-0.446068
6.630;3.899602;-0.469350
6.640;3.908144;-0.491733
6.650;3.914658;-0.513229
6.660;3.918193;-0.533996
6.670;3.918303;-0.554297
6.680;3.915170;-0.574395
6.690;3.909492;-0.594396
6.700;3.902230;-0.614115
6.710;3.894324;-0.633037
6.720;3.886489;-0.650424
6.730;3.879118;-0.665499
6.740;3.872286;-0.677645
6.750;3.865826;-0.686525
6.760;3.859456;-0.692115
6.770;3.852910;-0.694648
6.780;3.846016;-0.694508
6.790;3.838718;-0.692100
6.800;3.831053;-0.687756
6.810;3.823084;-0.681724
6.820;3.814829;-0.674211
6.830;3.806233;-0.665457
6.840;3.797222;-0.655781
6.850;3.787820;-0.645595
6.860;3.778243;-0.635408
6.870;3.768898;-0.625789
6.880;3.760274;-0.617264
6.890;3.752781;-0.610122
6.900;3.746610;-0.604209
6.910;3.741665;-0.598848
6.920;3.737602;-0.592994
6.930;3.733958;-0.585566
6.940;3.730322;-0.575824
6.950;3.726473;-0.563599
6.960;3.722438;-0.549323
6.970;3.718455;-0.533879
6.980;3.714887;-0.518360
6.990;3.712132;-0.503843
7.000;3.710557;-0.491207
7.010;3.710464;-0.481015
7.020;3.712077;-0.473435
7.030;3.715545;-0.468227
7.040;3.720974;-0.464803
7.050;3.728463;-0.462399
7.060;3.738140;-0.460316
7.070;3.750160;-0.458120
7.080;3.764643;-0.455716
7.090;3.781595;-0.453253
7.100;3.800858;-0.450930
7.110;3.822120;-0.448833
7.120;3.844963;-0.446890
7.130;3.868887;-0.444954
7.140;3.893293;-0.442934
7.150;3.917452;-0.440884
7.160;3.940545;-0.439005
7.170;3.961823;-0.437583
7.180;3.980858;-0.436927
7.190;3.997775;-0.437345
7.200;4.013354;-0.439132
7.210;4.028905;-0.442559
7.220;4.045936;-0.447799
7.230;4.065699;-0.454850
7.240;4.088838;-0.463516
7.250;4.115253;-0.473497
7.260;4.144249;-0.484556
7.270;4.174852;-0.496661
7.280;4.206118;-0.509980
7.290;4.237268;-0.524686
7.300;4.267612;-0.540710
7.310;4.296401;-0.557582
7.320;4.322782;-0.574498
7.330;4.345965;-0.590566
7.340;4.365514;-0.605090
7.350;4.381605;-0.617776
7.360;4.395078;-0.628787
7.370;4.407245;-0.638668
7.380;4.419508;-0.648152
7.390;4.432946;-0.657912
7.400;4.448005;-0.668321
7.410;4.464419;-0.679304
7.420;4.481343;-0.690336
7.430;4.497637;-0.700603
7.440;4.512156;-0.709292
7.450;4.523973;-0.715894
7.460;4.532501;-0.720423
7.470;4.537535;-0.723401
7.480;4.539222;-0.725643
7.490;4.537997;-0.727955
7.500;4.534438;-0.730894
7.510;4.529076;-0.734658
7.520;4.522177;-0.739057
7.530;4.513587;-0.743547
7.540;4.502725;-0.747287
7.550;4.488743;-0.749281
7.560;4.470790;-0.748603
7.570;4.448304;-0.744659
7.580;4.421227;-0.737386
7.590;4.390115;-0.727256
7.600;4.356134;-0.715074
7.610;4.320942;-0.701682
7.620;4.286453;-0.687740
7.630;4.254450;-0.673673
7.640;4.226149;-0.659773
7.650;4.201845;-0.646315
7.660;4.180803;-0.633605
7.670;4.161449;-0.621934
7.680;4.141774;-0.611481
7.690;4.119809;-0.602246
7.700;4.094013;-0.594000
7.710;4.063518;-0.586278
7.720;4.028218;-0.578422
7.730;3.988716;-0.569676
7.740;3.946180;-0.559334
7.750;3.902106;-0.546898
7.760;3.858073;-0.532220
7.770;3.815493;-0.515599
7.780;3.775406;-0.497769
7.790;3.738360;-0.479772
7.800;3.704399;-0.462729
7.810;3.673177;-0.447582
7.820;3.644143;-0.434892
7.830;3.616716;-0.424730
7.840;3.590378;-0.416703
7.850;3.564698;-0.410093
7.860;3.539343;-0.404080
7.870;3.514145;-0.397958
7.880;3.489176;-0.391257
7.890;3.464811;-0.383734
7.900;3.441681;-0.375283
7.910;3.420546;-0.365869
7.920;3.402093;-0.355529
7.930;3.386777;-0.344426
7.940;3.374735;-0.332870
7.950;3.365827;-0.321257
7.960;3.359762;-0.309933
7.970;3.356215;-0.299043
7.980;3.354875;-0.288449
7.990;3.355416;-0.277758
8.000;3.357458;-0.266461
8.010;3.360609;-0.254140
8.020;3.364585;-0.240674
8.030;3.369345;-0.226400
