Time[s];COPx[cm];COPy[cm]
0.010;-3.829406;1.660314
0.020;-3.867351;1.634589
0.030;-3.902948;1.609447
0.040;-3.934096;1.585608
0.050;-3.959277;1.563974
0.060;-3.977706;1.545533
0.070;-3.989312;1.531162
0.080;-3.994593;1.521395
0.090;-3.994419;1.516283
0.100;-3.989835;1.515410
0.110;-3.981903;1.518050
0.120;-3.971581;1.523370
0.130;-3.959639;1.530599
0.140;-3.946586;1.539121
0.150;-3.932622;1.548488
0.160;-3.917653;1.558412
0.170;-3.901384;1.568761
0.180;-3.883479;1.579582
0.190;-3.863725;1.591101
0.200;-3.842115;1.603669
0.210;-3.818834;1.617659
0.220;-3.794173;1.633362
0.230;-3.768444;1.650898
0.240;-3.741926;1.670181
0.250;-3.714832;1.690931
0.260;-3.687300;1.712743
0.270;-3.659384;1.735166
0.280;-3.631085;1.757747
0.290;-3.602430;1.780030
0.300;-3.573566;1.801523
0.310;-3.544827;1.821684
0.320;-3.516703;1.839954
0.330;-3.489758;1.855844
0.340;-3.464525;1.869027
0.350;-3.441413;1.879406
0.360;-3.420642;1.887119
0.370;-3.402208;1.892512
0.380;-3.385922;1.896080
0.390;-3.371500;1.898394
0.400;-3.358661;1.899994
0.410;-3.347193;1.901284
0.420;-3.336983;1.902468
0.430;-3.328033;1.903535
0.440;-3.320463;1.904293
0.450;-3.314469;1.904440
0.460;-3.310253;1.903668
0.470;-3.307956;1.901791
0.480;-3.307650;1.898861
0.490;-3.309365;1.895191
0.500;-3.313116;1.891254
0.510;-3.318902;1.887478
0.520;-3.326693;1.884066
0.530;-3.336421;1.880944
0.540;-3.347950;1.877874
0.550;-3.361018;1.874634
0.560;-3.375164;1.871140
0.570;-3.389751;1.867461
0.580;-3.404094;1.863733
0.590;-3.417660;1.860072
0.600;-3.430237;1.856515
0.610;-3.441958;1.853041
0.620;-3.453171;1.849629
0.630;-3.464199;1.846325
0.640;-3.475130;1.843270
0.650;-3.485740;1.840678
0.660;-3.495595;1.838761
0.670;-3.504273;1.837651
0.680;-3.511588;1.837356
0.690;-3.517696;1.837789
0.700;-3.523037;1.838880
0.710;-3.528155;1.840682
0.720;-3.533476;1.843401
0.730;-3.539136;1.847311
0.740;-3.544932;1.852588
0.750;-3.550392;1.859155
0.760;-3.554942;1.866609
0.770;-3.558107;1.874280
0.780;-3.559686;1.881412
0.790;-3.559832;1.887429
0.800;-3.559001;1.892184
0.810;-3.557776;1.896064
0.820;-3.556652;1.899874
0.830;-3.555847;1.904512
0.840;-3.555227;1.910573
0.850;-3.554369;1.918051
0.860;-3.552745;1.926301
0.870;-3.549952;1.934305
0.880;-3.545866;1.941160
0.890;-3.540664;1.946550
0.900;-3.534686;1.950958
0.910;-3.528237;1.955475
0.920;-3.521424;1.961296
0.930;-3.514081;1.969155
0.940;-3.505809;1.978976
0.950;-3.496109;1.989868
0.960;-3.484548;2.000438
0.970;-3.470901;2.009289
0.980;-3.455200;2.015489
0.990;-3.437704;2.018855
1.000;-3.418836;2.019929
1.010;-3.399135;2.019691
1.020;-3.379238;2.019131
1.030;-3.359850;2.018857
1.040;-3.341664;2.018890
1.050;-3.325230;2.018725
1.060;-3.310811;2.017602
1.070;-3.298302;2.014869
1.080;-3.287264;2.010268
1.090;-3.277049;2.004035
1.100;-3.266989;1.996762
1.110;-3.256579;1.989127
1.120;-3.245592;1.981641
1.130;-3.234130;1.974502
1.140;-3.222590;1.967613
1.150;-3.211583;1.960699
1.160;-3.201813;1.953460
1.170;-3.193956;1.945675
1.180;-3.188531;1.937203
1.190;-3.185818;1.927950
1.200;-3.185812;1.917830
1.210;-3.188259;1.906807
1.220;-3.192737;1.894948
1.230;-3.198767;1.882459
1.240;-3.205898;1.869624
1.250;-3.213757;1.856661
1.260;-3.222050;1.843591
1.270;-3.230547;1.830227
1.280;-3.239066;1.816322
1.290;-3.247485;1.801790
1.300;-3.255790;1.786861
1.310;-3.264123;1.772039
1.320;-3.272793;1.757905
1.330;-3.282188;1.744848
1.340;-3.292613;1.732909
1.350;-3.304111;1.721785
1.360;-3.316374;1.710999
1.370;-3.328791;1.700128
1.380;-3.340631;1.689018
1.390;-3.351289;1.677873
1.400;-3.360485;1.667194
1.410;-3.368323;1.657574
1.420;-3.375175;1.649476
1.430;-3.381443;1.643107
1.440;-3.387308;1.638421
1.450;-3.392617;1.635222
1.460;-3.396944;1.633244
1.470;-3.399797;1.632213
1.480;-3.400838;1.631856
1.490;-3.400039;1.631925
1.500;-3.397718;1.632209
1.510;-3.394455;1.632581
1.520;-3.390930;1.633058
1.530;-3.387731;1.633859
1.540;-3.385193;1.635378
1.550;-3.383309;1.638041
1.560;-3.381754;1.642115
1.570;-3.380011;1.647591
1.580;-3.377562;1.654235
1.590;-3.374045;1.661798
1.600;-3.369339;1.670213
1.610;-3.363551;1.679657
1.620;-3.356967;1.690410
1.630;-3.349990;1.702614
1.640;-3.343082;1.716060
1.650;-3.336718;1.730135
1.660;-3.331345;1.743915
1.670;-3.327334;1.756377
1.680;-3.324935;1.766613
1.690;-3.324252;1.773994
1.700;-3.325265;1.778221
1.710;-3.327895;1.779307
1.720;-3.332069;1.777499
1.730;-3.337734;1.773208
1.740;-3.344806;1.766928
1.750;-3.353106;1.759177
1.760;-3.362322;1.750450
1.770;-3.372048;1.741193
1.780;-3.381848;1.731771
1.790;-3.391314;1.722428
1.800;-3.400091;1.713257
1.810;-3.407926;1.704184
1.820;-3.414724;1.694998
1.830;-3.420619;1.685430
1.840;-3.425961;1.675278
1.850;-3.431227;1.664527
1.860;-3.436844;1.653385
1.870;-3.443055;1.642184
1.880;-3.449867;1.631214
1.890;-3.457107;1.620602
1.900;-3.464535;1.610321
1.910;-3.471937;1.600325
1.920;-3.479180;1.590712
1.930;-3.486201;1.581796
1.940;-3.492964;1.574021
1.950;-3.499385;1.567763
1.960;-3.505297;1.563122
1.970;-3.510486;1.559805
1.980;-3.514788;1.557146
1.990;-3.518200;1.554268
2.000;-3.520916;1.550331
2.010;-3.523233;1.544803
2.020;-3.525376;1.537631
2.030;-3.527347;1.529265
2.040;-3.528879;1.520512
2.050;-3.529533;1.512289
2.060;-3.528862;1.505355
2.070;-3.526550;1.500104
2.080;-3.522436;1.496491
2.090;-3.516454;1.494110
2.100;-3.508533;1.492403
2.110;-3.498526;1.490913
2.120;-3.486214;1.489496
2.130;-3.471384;1.488402
2.140;-3.453959;1.488196
2.150;-3.434101;1.489549
2.160;-3.412236;1.492988
2.170;-3.388972;1.498659
2.180;-3.364966;1.506205
2.190;-3.340810;1.514821
2.200;-3.316978;1.523495
2.210;-3.293855;1.531342
2.220;-3.271764;1.537870
2.230;-3.250952;1.543054
2.240;-3.231565;1.547179
2.250;-3.213636;1.550557
2.260;-3.197138;1.553257
2.270;-3.182089;1.555023
2.280;-3.168627;1.555436
2.290;-3.157013;1.554248
2.300;-3.147535;1.551708
2.310;-3.140362;1.548665
2.320;-3.135416;1.546353
2.330;-3.132325;1.545976
2.340;-3.130484;1.548302
2.350;-3.129210;1.553496
2.360;-3.127930;1.561189
2.370;-3.126355;1.570705
2.380;-3.124567;1.581292
2.390;-3.122989;1.592269
2.400;-3.122247;1.603113
2.410;-3.123010;1.613507
2.420;-3.125845;1.623335
2.430;-3.131139;1.632633
2.440;-3.139047;1.641506
2.450;-3.149458;1.650056
2.460;-3.161981;1.658364
2.470;-3.176002;1.666513
2.480;-3.190806;1.674629
2.490;-3.205754;1.682883
2.500;-3.220424;1.691431
2.510;-3.234655;1.700308
2.520;-3.248478;1.709344
2.530;-3.261969;1.718144
2.540;-3.275112;1.726190
2.550;-3.287727;1.733012
2.560;-3.299498;1.738360
2.570;-3.310100;1.742289
2.580;-3.319355;1.745111
2.590;-3.327344;1.747270
2.600;-3.334418;1.749195
2.610;-3.341116;1.751214
2.620;-3.348026;1.753525
2.630;-3.355655;1.756232
2.640;-3.364304;1.759398
2.650;-3.373997;1.763078
2.660;-3.384490;1.767298
2.670;-3.395374;1.771997
2.680;-3.406214;1.777000
2.690;-3.416652;1.782051
2.700;-3.426433;1.786906
2.710;-3.435392;1.791440
2.720;-3.443423;1.795694
2.730;-3.450473;1.799840
2.740;-3.456548;1.804064
2.750;-3.461726;1.808439
2.760;-3.466141;1.812881
2.770;-3.469949;1.817212
2.780;-3.473291;1.821307
2.790;-3.476271;1.825196
2.800;-3.478965;1.829063
2.810;-3.481474;1.833101
2.820;-3.483962;1.837351
2.830;-3.486647;1.841596
2.840;-3.489742;1.845409
2.850;-3.493366;1.848303
2.860;-3.497520;1.849932
2.870;-3.502138;1.850222
2.880;-3.507167;1.849370
2.890;-3.512617;1.847718
2.900;-3.518533;1.845580
2.910;-3.524903;1.843104
2.920;-3.531586;1.840230
2.930;-3.538302;1.836709
2.940;-3.544734;1.832156
2.950;-3.550658;1.826137
2.960;-3.556049;1.818272
2.970;-3.561093;1.808345
2.980;-3.566137;1.796371
2.990;-3.571625;1.782594
3.000;-3.578049;1.767432
3.010;-3.585883;1.751393
3.020;-3.595506;1.734998
3.030;-3.607118;1.718743
3.040;-3.620697;1.703073
3.050;-3.636037;1.688375
3.060;-3.652817;1.674955
3.070;-3.670685;1.663032
3.080;-3.689321;1.652748
3.090;-3.708479;1.644229
3.100;-3.727988;1.637633
3.110;-3.747718;1.633140
3.120;-3.767508;1.630857
3.130;-3.787093;1.630681
3.140;-3.806076;1.632217
3.150;-3.823964;1.634841
3.160;-3.840259;1.637889
3.170;-3.854566;1.640898
3.180;-3.866694;1.643743
3.190;-3.876709;1.646624
3.200;-3.884910;1.649890
3.210;-3.891729;1.653799
3.220;-3.897576;1.658325
3.230;-3.902716;1.663112
3.240;-3.907216;1.667603
3.250;-3.910956;1.671294
3.260;-3.913697;1.673932
3.270;-3.915187;1.675546
3.280;-3.915278;1.676282
3.290;-3.914013;1.676195
3.300;-3.911634;1.675159
3.310;-3.908500;1.672964
3.320;-3.904974;1.669538
3.330;-3.901337;1.665103
3.340;-3.897738;1.660185
3.350;-3.894184;1.655456
3.360;-3.890535;1.651492
3.370;-3.886494;1.648574
3.380;-3.881642;1.646619
3.390;-3.875517;1.645271
3.400;-3.867741;1.644091
3.410;-3.858140;1.642738
3.420;-3.846824;1.641078
3.430;-3.834155;1.639209
3.440;-3.820628;1.637427
3.450;-3.806708;1.636132
3.460;-3.792698;1.635684
3.470;-3.778688;1.636254
3.480;-3.764609;1.637734
3.490;-3.750349;1.639750
3.500;-3.735885;1.641789
3.510;-3.721366;1.643389
3.520;-3.707120;1.644291
3.530;-3.693581;1.644487
3.540;-3.681152;1.644144
3.550;-3.670070;1.643469
3.560;-3.660333;1.642600
3.570;-3.651714;1.641545
3.580;-3.643869;1.640177
3.590;-3.636455;1.638259
3.600;-3.629233;1.635487
3.610;-3.622087;1.631556
3.620;-3.615002;1.626243
3.630;-3.608009;1.619509
3.640;-3.601164;1.611576
3.650;-3.594565;1.602917
3.660;-3.588404;1.594155
3.670;-3.582984;1.585895
3.680;-3.578654;1.578544
3.690;-3.575682;1.572173
3.700;-3.574122;1.566481
3.710;-3.573742;1.560924
3.720;-3.574053;1.554983
3.730;-3.574439;1.548459
3.740;-3.574333;1.541615
3.750;-3.573357;1.535074
3.760;-3.571378;1.529549
3.770;-3.568482;1.525564
3.780;-3.564912;1.523288
3.790;-3.560991;1.522518
3.800;-3.557064;1.522757
3.810;-3.553464;1.523363
3.820;-3.550512;1.523710
3.830;-3.548526;1.523346
3.840;-3.547802;1.522106
3.850;-3.548563;1.520151
3.860;-3.550900;1.517918
3.870;-3.554720;1.515974
3.880;-3.559708;1.514817
3.890;-3.565323;1.514694
3.900;-3.570890;1.515502
3.910;-3.575760;1.516835
3.920;-3.579532;1.518137
3.930;-3.582240;1.518902
3.940;-3.584393;1.518826
3.950;-3.586843;1.517832
3.960;-3.590472;1.516018
3.970;-3.595814;1.513566
3.980;-3.602793;1.510707
3.990;-3.610688;1.507713
4.000;-3.618370;1.504901
4.010;-3.624699;1.502590
4.020;-3.628895;1.501024
4.030;-3.630740;1.500308
4.040;-3.630542;1.500375
4.050;-3.628922;1.501026
4.060;-3.626570;1.502012
4.070;-3.624057;1.503132
4.080;-3.621772;1.504291
4.090;-3.619935;1.505461
4.100;-3.618662;1.506567
4.110;-3.618049;1.507368
4.120;-3.618218;1.507435
4.130;-3.619295;1.506265
4.140;-3.621334;1.503493
4.150;-3.624261;1.499076
4.160;-3.627879;1.493352
4.170;-3.631920;1.486950
4.180;-3.636109;1.480609
4.190;-3.640208;1.474988
4.200;-3.644023;1.470558
4.210;-3.647405;1.467576
4.220;-3.650217;1.466105
4.230;-3.652312;1.466048
4.240;-3.653530;1.467196
4.250;-3.653725;1.469286
4.260;-3.652840;1.472062
4.270;-3.650973;1.475329
4.280;-3.648430;1.478965
4.290;-3.645711;1.482916
4.300;-3.643427;1.487177
4.310;-3.642173;1.491783
4.320;-3.642406;1.496796
4.330;-3.644331;1.502256
4.340;-3.647829;1.508095
4.350;-3.652424;1.514029
4.360;-3.657335;1.519511
4.370;-3.661633;1.523818
4.380;-3.664486;1.526272
4.390;-3.665390;1.526537
4.400;-3.664303;1.524826
4.410;-3.661589;1.521854
4.420;-3.657812;1.518519
4.430;-3.653494;1.515440
4.440;-3.648952;1.512623
4.450;-3.644249;1.509452
4.460;-3.639214;1.505030
4.470;-3.633475;1.498689
4.480;-3.626493;1.490449
4.490;-3.617646;1.481207
4.500;-3.606361;1.472595
4.510;-3.592259;1.466556
4.520;-3.575267;1.464797
4.530;-3.555624;1.468309
4.540;-3.533816;1.477099
4.550;-3.510451;1.490235
4.560;-3.486148;1.506184
4.570;-3.461441;1.523305
4.580;-3.436728;1.540265
4.590;-3.412270;1.556240
4.600;-3.388246;1.570850
4.610;-3.364840;1.583950
4.620;-3.342301;1.595405
4.630;-3.320943;1.604989
4.640;-3.301082;1.612439
4.650;-3.282975;1.617600
4.660;-3.266775;1.620571
4.670;-3.252516;1.621740
4.680;-3.240126;1.621683
4.690;-3.229452;1.620984
4.700;-3.220304;1.620085
4.710;-3.212487;1.619266
4.720;-3.205793;1.618740
4.730;-3.199936;1.618771
4.740;-3.194480;1.619697
4.750;-3.188817;1.621831
4.760;-3.182266;1.625274
4.770;-3.174268;1.629779
4.780;-3.164622;1.634766
4.790;-3.153620;1.639505
4.800;-3.142042;1.643386
4.810;-3.130970;1.646174
4.820;-3.121522;1.648111
4.830;-3.114564;1.649843
4.840;-3.110502;1.652171
4.850;-3.109219;1.655736
4.860;-3.110168;1.660763
4.870;-3.112595;1.666984
4.880;-3.115796;1.673758
4.890;-3.119314;1.680342
4.900;-3.122991;1.686183
4.910;-3.126900;1.691143
4.920;-3.131170;1.695577
4.930;-3.135823;1.700231
4.940;-3.140666;1.705986
4.950;-3.145293;1.713527
4.960;-3.149151;1.723090
4.970;-3.151676;1.734433
4.980;-3.152449;1.747007
4.990;-3.151338;1.760227
5.000;-3.148557;1.773682
5.010;-3.144609;1.787200
5.020;-3.140096;1.800797
5.030;-3.135498;1.814589
5.040;-3.131007;1.828731
5.050;-3.126496;1.843402
5.060;-3.121628;1.858780
5.070;-3.116042;1.875003
5.080;-3.109535;1.892082
5.090;-3.102174;1.909843
5.100;-3.094317;1.927940
5.110;-3.086532;1.945956
5.120;-3.079453;1.963549
5.130;-3.073582;1.980562
5.140;-3.069137;1.997054
5.150;-3.065990;2.013208
5.160;-3.063744;2.029200
5.170;-3.061889;2.045083
5.180;-3.059969;2.060756
5.190;-3.057690;2.075990
5.200;-3.054930;2.090480
5.210;-3.051701;2.103904
5.220;-3.048101;2.116012
5.230;-3.044284;2.126716
5.240;-3.040460;2.136137
5.250;-3.036886;2.144568
5.260;-3.033865;2.152361
5.270;-3.031722;2.159781
5.280;-3.030760;2.166875
5.290;-3.031212;2.173385
5.300;-3.033182;2.178775
5.310;-3.036614;2.182364
5.320;-3.041286;2.183564
5.330;-3.046858;2.182124
5.340;-3.052961;2.178251
5.350;-3.059293;2.172539
5.360;-3.065688;2.165724
5.370;-3.072137;2.158380
5.380;-3.078775;2.150702
5.390;-3.085833;2.142489
5.400;-3.093559;2.133324
5.410;-3.102115;2.122830
5.420;-3.111487;2.110870
5.430;-3.121468;2.097591
5.440;-3.131694;2.083310
5.450;-3.141745;2.068346
5.460;-3.151240;2.052913
5.470;-3.159937;2.037118
5.480;-3.167800;2.021043
5.490;-3.175009;2.004816
5.500;-3.181909;1.988636
5.510;-3.188897;1.972754
5.520;-3.196302;1.957433
5.530;-3.204319;1.942904
5.540;-3.213007;1.929331
5.550;-3.222343;1.916808
5.560;-3.232289;1.905382
5.570;-3.242830;1.895082
5.580;-3.253960;1.885904
5.590;-3.265609;1.877771
5.600;-3.277537;1.870527
5.610;-3.289284;1.863987
5.620;-3.300216;1.858029
5.630;-3.309673;1.852651
5.640;-3.317143;1.847946
5.650;-3.322411;1.844008
5.660;-3.325615;1.840824
5.670;-3.327190;1.838252
5.680;-3.327725;1.836065
5.690;-3.327795;1.834040
5.700;-3.327851;1.832010
5.710;-3.328185;1.829877
5.720;-3.328949;1.827594
5.730;-3.330185;1.825146
5.740;-3.331807;1.822524
5.750;-3.333586;1.819708
5.760;-3.335154;1.816673
5.770;-3.336105;1.813436
5.780;-3.336129;1.810137
5.790;-3.335125;1.807060
5.800;-3.333232;1.804582
5.810;-3.330771;1.803027
5.820;-3.328122;1.802495
5.830;-3.325605;1.802745
5.840;-3.323391;1.803193
5.850;-3.321491;1.803028
5.860;-3.319789;1.801437
5.870;-3.318109;1.797852
5.880;-3.316256;1.792151
5.890;-3.314053;1.784745
5.900;-3.311361;1.776504
5.910;-3.308109;1.768523
5.920;-3.304310;1.761773
5.930;-3.300056;1.756793
5.940;-3.295503;1.753541
5.950;-3.290834;1.751460
5.960;-3.286228;1.749700
5.970;-3.281840;1.747388
5.980;-3.277790;1.743849
5.990;-3.274145;1.738745
6.000;-3.270915;1.732127
6.010;-3.268047;1.724401
6.020;-3.265462;1.716240
6.030;-3.263100;1.708446
6.040;-3.260948;1.701762
6.050;-3.259026;1.696662
6.060;-3.257347;1.693183
6.070;-3.255883;1.690900
6.080;-3.254543;1.689081
6.090;-3.253189;1.686957
6.100;-3.251666;1.683971
6.110;-3.249859;1.679917
6.120;-3.247752;1.674944
6.130;-3.245452;1.669441
6.140;-3.243182;1.663865
6.150;-3.241247;1.658585
6.160;-3.239954;1.653802
6.170;-3.239516;1.649575
6.180;-3.239972;1.645902
6.190;-3.241163;1.642803
6.200;-3.242800;1.640351
6.210;-3.244587;1.638623
6.220;-3.246370;1.637611
6.230;-3.248224;1.637153
6.240;-3.250417;1.636931
6.250;-3.253257;1.636577
6.260;-3.256903;1.635819
6.270;-3.261246;1.634592
6.280;-3.265928;1.633072
6.290;-3.270480;1.631599
6.300;-3.274505;1.630552
6.310;-3.277825;1.630201
6.320;-3.280549;1.630619
6.330;-3.283030;1.631658
6.340;-3.285749;1.633004
6.350;-3.289161;1.634263
6.360;-3.293575;1.635066
6.370;-3.299112;1.635170
6.380;-3.305744;1.634540
6.390;-3.313352;1.633390
6.400;-3.321755;1.632115
6.410;-3.330694;1.631144
6.420;-3.339825;1.630739
6.430;-3.348775;1.630874
6.440;-3.357244;1.631229
6.450;-3.365094;1.631289
6.460;-3.372373;1.630527
6.470;-3.379276;1.628587
6.480;-3.386051;1.625441
6.490;-3.392899;1.621412
6.500;-3.399912;1.617053
6.510;-3.407074;1.612912
6.520;-3.414297;1.609310
6.530;-3.421445;1.606264
6.540;-3.428327;1.603575
6.550;-3.434659;1.601024
6.560;-3.440078;1.598548
6.570;-3.444223;1.596285
6.580;-3.446880;1.594488
6.590;-3.448113;1.593358
6.600;-3.448289;1.592934
6.610;-3.447977;1.593071
6.620;-3.447766;1.593529
6.630;-3.448101;1.594083
6.640;-3.449187;1.594637
6.650;-3.450980;1.595269
6.660;-3.453231;1.596213
6.670;-3.455568;1.597754
6.680;-3.457585;1.600086
6.690;-3.458947;1.603214
6.700;-3.459484;1.606936
6.710;-3.459260;1.610906
6.720;-3.458556;1.614734
6.730;-3.457738;1.618098
6.740;-3.457092;1.620834
6.750;-3.456698;1.622962
6.760;-3.456427;1.624635
6.770;-3.456030;1.626013
6.780;-3.455267;1.627167
6.790;-3.453991;1.628064
6.800;-3.452170;1.628640
6.810;-3.449834;1.628884
6.820;-3.447001;1.628872
6.830;-3.443619;1.628743
6.840;-3.439570;1.628664
6.850;-3.434748;1.628848
6.860;-3.429159;1.629553
6.870;-3.422992;1.631039
6.880;-3.416614;1.633463
6.890;-3.410456;1.636767
6.900;-3.404844;1.640638
6.910;-3.399828;1.644577
6.920;-3.395136;1.648059
6.930;-3.390273;1.650726
6.940;-3.384750;1.652530
6.950;-3.378302;1.653745
6.960;-3.370986;1.654852
6.970;-3.363123;1.656377
6.980;-3.355120;1.658738
6.990;-3.347290;1.662135
7.000;-3.339742;1.666470
7.010;-3.332399;1.671337
7.020;-3.325089;1.676105
7.030;-3.317667;1.680093
7.040;-3.310084;1.682765
7.050;-3.302372;1.683838
7.060;-3.294569;1.683305
7.070;-3.286669;1.681387
7.080;-3.278632;1.678488
7.090;-3.270428;1.675168
7.100;-3.262090;1.672092
7.110;-3.253712;1.669932
7.120;-3.245413;1.669224
7.130;-3.237283;1.670262
7.140;-3.229347;1.673094
7.150;-3.221574;1.677610
7.160;-3.213923;1.683624
7.170;-3.206394;1.690908
7.180;-3.199058;1.699171
7.190;-3.192030;1.708067
7.200;-3.185399;1.717225
7.210;-3.179165;1.726297
7.220;-3.173233;1.734972
7.230;-3.167490;1.742949
7.240;-3.161892;1.749918
7.250;-3.156528;1.755600
7.260;-3.151600;1.759837
7.270;-3.147351;1.762704
7.280;-3.143966;1.764568
7.290;-3.141480;1.766046
7.300;-3.139744;1.767891
7.310;-3.138454;1.770805
7.320;-3.137248;1.775278
7.330;-3.135817;1.781485
7.340;-3.134011;1.789297
7.350;-3.131908;1.798378
7.360;-3.129808;1.808348
7.370;-3.128165;1.818934
7.380;-3.127448;1.830051
7.390;-3.128008;1.841784
7.400;-3.129969;1.854295
7.410;-3.133196;1.867695
7.420;-3.137349;1.881971
7.430;-3.141982;1.896969
7.440;-3.146667;1.912436
7.450;-3.151085;1.928089
7.460;-3.155084;1.943679
7.470;-3.158691;1.958996
7.480;-3.162101;1.973814
7.490;-3.165616;1.987800
7.500;-3.169558;2.000478
7.510;-3.174168;2.011298
7.520;-3.179524;2.019822
7.530;-3.185516;2.025935
7.540;-3.191869;2.029971
7.550;-3.198184;2.032672
7.560;-3.204023;2.034990
7.570;-3.209037;2.037776
7.580;-3.213106;2.041470
7.590;-3.216438;2.045922
7.600;-3.219528;2.050409
7.610;-3.222983;2.053876
7.620;-3.227303;2.055283
7.630;-3.232724;2.053928
7.640;-3.239177;2.049629
7.650;-3.246369;2.042718
7.660;-3.253944;2.033882
7.670;-3.261659;2.023896
7.680;-3.269516;2.013371
7.690;-3.277793;2.002589
7.700;-3.286983;1.991470
7.710;-3.297654;1.979665
7.720;-3.310308;1.966718
7.730;-3.325264;1.952228
7.740;-3.342586;1.935979
7.750;-3.362034;1.917994
7.760;-3.383066;1.898557
7.770;-3.404881;1.878192
7.780;-3.426529;1.857606
7.790;-3.447068;1.837607
7.800;-3.465738;1.818972
7.810;-3.482108;1.802327
7.820;-3.496127;1.788081
7.830;-3.508051;1.776448
7.840;-3.518266;1.767496
7.850;-3.527114;1.761170
7.860;-3.534796;1.757263
7.870;-3.541383;1.755396
7.880;-3.546873;1.755053
7.890;-3.551246;1.755679
7.900;-3.554490;1.756818
7.910;-3.556621;1.758216
7.920;-3.557698;1.759834
7.930;-3.557861;1.761759
7.940;-3.557360;1.764049
7.950;-3.556567;1.766597
7.960;-3.555932;1.769112
7.970;-3.555885;1.771228
7.980;-3.556711;1.772678
