Time[s];COPx[cm];COPy[cm]
0.010;-3.886898;-0.340140
0.020;-3.893747;-0.345680
0.030;-3.899231;-0.352210
0.040;-3.902303;-0.360196
0.050;-3.902398;-0.369363
0.060;-3.899458;-0.378746
0.070;-3.893846;-0.387037
0.080;-3.886204;-0.393073
0.090;-3.877316;-0.396272
0.100;-3.868001;-0.396872
0.110;-3.859053;-0.395869
0.120;-3.851195;-0.394653
0.130;-3.845039;-0.394484
0.140;-3.841008;-0.396021
0.150;-3.839254;-0.399132
0.160;-3.839609;-0.403052
0.170;-3.841634;-0.406750
0.180;-3.844757;-0.409357
0.190;-3.848457;-0.410433
0.200;-3.852400;-0.410039
0.210;-3.856487;-0.408606
0.220;-3.860799;-0.406703
0.230;-3.865479;-0.404837
0.240;-3.870623;-0.403346
0.250;-3.876195;-0.402382
0.260;-3.882029;-0.401948
0.270;-3.887921;-0.401957
0.280;-3.893796;-0.402298
0.290;-3.899866;-0.402874
0.300;-3.906660;-0.403598
0.310;-3.914903;-0.404341
0.320;-3.925252;-0.404874
0.330;-3.938008;-0.404805
0.340;-3.952939;-0.403548
0.350;-3.969297;-0.400345
0.360;-3.986014;-0.394456
0.370;-4.001989;-0.385467
0.380;-4.016308;-0.373602
0.390;-4.028368;-0.359814
0.400;-4.037892;-0.345547
0.410;-4.044881;-0.332290
0.420;-4.049560;-0.321139
0.430;-4.052325;-0.312584
0.440;-4.053734;-0.306565
0.450;-4.054527;-0.302683
0.460;-4.055602;-0.300424
0.470;-4.057919;-0.299297
0.480;-4.062283;-0.298871
0.490;-4.069116;-0.298786
0.500;-4.078306;-0.298753
0.510;-4.089256;-0.298586
0.520;-4.101074;-0.298234
0.530;-4.112838;-0.297806
0.540;-4.123800;-0.297549
0.550;-4.133472;-0.297754
0.560;-4.141604;-0.298618
0.570;-4.148117;-0.300144
0.580;-4.153061;-0.302116
0.590;-4.156613;-0.304176
0.600;-4.159090;-0.305958
0.610;-4.160931;-0.307226
0.620;-4.162609;-0.307973
0.630;-4.164512;-0.308441
0.640;-4.166837;-0.309040
0.650;-4.169545;-0.310186
0.660;-4.172390;-0.312111
0.670;-4.175006;-0.314743
0.680;-4.177039;-0.317716
0.690;-4.178249;-0.320512
0.700;-4.178557;-0.322698
0.710;-4.178031;-0.324188
0.720;-4.176827;-0.325377
0.730;-4.175135;-0.327065
0.740;-4.173128;-0.330151
0.750;-4.170911;-0.335251
0.760;-4.168492;-0.342408
0.770;-4.165794;-0.351069
0.780;-4.162710;-0.360332
0.790;-4.159181;-0.369368
0.800;-4.155235;-0.377799
0.810;-4.150964;-0.385880
0.820;-4.146443;-0.394398
0.830;-4.141621;-0.404342
0.840;-4.136246;-0.416442
0.850;-4.129891;-0.430790
0.860;-4.122105;-0.446716
0.870;-4.112643;-0.463008
0.880;-4.101660;-0.478417
0.890;-4.089756;-0.492271
0.900;-4.077815;-0.504944
0.910;-4.066716;-0.518038
0.920;-4.057045;-0.534206
0.930;-4.048904;-0.556625
0.940;-4.041868;-0.588244
0.950;-4.035083;-0.630947
0.960;-4.027470;-0.684882
0.970;-4.017977;-0.748182
0.980;-4.005815;-0.817202
0.990;-3.990607;-0.887179
1.000;-3.972405;-0.953077
1.010;-3.951576;-1.010378
1.020;-3.928640;-1.055644
1.030;-3.904146;-1.086819
1.040;-3.878662;-1.103308
1.050;-3.852878;-1.105903
1.060;-3.827728;-1.096556
1.070;-3.804385;-1.078028
1.080;-3.784074;-1.053408
1.090;-3.767745;-1.025613
1.100;-3.755770;-0.996932
1.110;-3.747807;-0.968723
1.120;-3.742888;-0.941304
1.130;-3.739708;-0.914070
1.140;-3.736977;-0.885828
1.150;-3.733715;-0.855272
1.160;-3.729389;-0.821473
1.170;-3.723887;-0.784252
1.180;-3.717395;-0.744329
1.190;-3.710269;-0.703238
1.200;-3.702932;-0.663001
1.210;-3.695805;-0.625672
1.220;-3.689249;-0.592864
1.230;-3.683493;-0.565416
1.240;-3.678592;-0.543280
1.250;-3.674426;-0.525656
1.260;-3.670754;-0.511312
1.270;-3.667314;-0.498986
1.280;-3.663907;-0.487718
1.290;-3.660468;-0.477032
1.300;-3.657069;-0.466906
1.310;-3.653897;-0.457604
1.320;-3.651197;-0.449433
1.330;-3.649218;-0.442571
1.340;-3.648147;-0.436988
1.350;-3.648062;-0.432493
1.360;-3.648925;-0.428836
1.370;-3.650596;-0.425795
1.380;-3.652848;-0.423215
1.390;-3.655379;-0.421028
1.400;-3.657832;-0.419256
1.410;-3.659859;-0.418043
1.420;-3.661221;-0.417641
1.430;-3.661899;-0.418342
1.440;-3.662148;-0.420334
1.450;-3.662444;-0.423574
1.460;-3.663310;-0.427736
1.470;-3.665078;-0.432292
1.480;-3.667718;-0.436663
1.490;-3.670848;-0.440358
1.500;-3.673933;-0.443040
1.510;-3.676585;-0.444522
1.520;-3.678783;-0.444753
1.530;-3.680882;-0.443821
1.540;-3.683404;-0.441955
1.550;-3.686734;-0.439510
1.560;-3.690926;-0.436877
1.570;-3.695711;-0.434344
1.580;-3.700688;-0.431967
1.590;-3.705560;-0.429540
1.600;-3.710264;-0.426689
1.610;-3.714921;-0.423051
1.620;-3.719672;-0.418419
1.630;-3.724518;-0.412795
1.640;-3.729264;-0.406366
1.650;-3.733586;-0.399427
1.660;-3.737167;-0.392292
1.670;-3.739817;-0.385212
1.680;-3.741555;-0.378307
1.690;-3.742613;-0.371528
1.700;-3.743382;-0.364669
1.710;-3.744295;-0.357436
1.720;-3.745693;-0.349584
1.730;-3.747722;-0.341068
1.740;-3.750329;-0.332123
1.750;-3.753379;-0.323216
1.760;-3.756815;-0.314906
1.770;-3.760749;-0.307698
1.780;-3.765409;-0.302002
1.790;-3.770976;-0.298162
1.800;-3.777417;-0.296463
1.810;-3.784405;-0.297033
1.820;-3.791386;-0.299672
1.830;-3.797733;-0.303744
1.840;-3.802880;-0.308232
1.850;-3.806379;-0.311981
1.860;-3.807888;-0.314011
1.870;-3.807150;-0.313803
1.880;-3.804021;-0.311423
1.890;-3.798552;-0.307471
1.900;-3.791075;-0.302857
1.910;-3.782275;-0.298492
1.920;-3.773194;-0.295019
1.930;-3.765125;-0.292686
1.940;-3.759402;-0.291412
1.950;-3.757123;-0.290971
1.960;-3.758878;-0.291153
1.970;-3.764573;-0.291830
1.980;-3.773381;-0.292913
1.990;-3.783887;-0.294282
2.000;-3.794394;-0.295769
2.010;-3.803339;-0.297236
2.020;-3.809697;-0.298686
2.030;-3.813216;-0.300346
2.040;-3.814372;-0.302623
2.050;-3.814072;-0.305925
2.060;-3.813255;-0.310433
2.070;-3.812586;-0.315952
2.080;-3.812383;-0.321956
2.090;-3.812733;-0.327813
2.100;-3.813671;-0.333049
2.110;-3.815255;-0.337501
2.120;-3.817523;-0.341296
2.130;-3.820364;-0.344727
2.140;-3.823461;-0.348126
2.150;-3.826348;-0.351760
2.160;-3.828577;-0.355788
2.170;-3.829906;-0.360240
2.180;-3.830409;-0.365036
2.190;-3.830455;-0.370027
2.200;-3.830566;-0.375087
2.210;-3.831200;-0.380176
2.220;-3.832546;-0.385338
2.230;-3.834448;-0.390595
2.240;-3.836459;-0.395842
2.250;-3.838025;-0.400818
2.260;-3.838685;-0.405182
2.270;-3.838231;-0.408663
2.280;-3.836780;-0.411197
2.290;-3.834762;-0.413000
2.300;-3.832832;-0.414541
2.310;-3.831737;-0.416398
2.320;-3.832154;-0.419035
2.330;-3.834533;-0.422595
2.340;-3.838983;-0.426800
2.350;-3.845230;-0.431020
2.360;-3.852672;-0.434497
2.370;-3.860552;-0.436644
2.380;-3.868187;-0.437326
2.390;-3.875160;-0.436981
2.400;-3.881375;-0.436491
2.410;-3.886963;-0.436833
2.420;-3.892118;-0.438646
2.430;-3.896973;-0.441926
2.440;-3.901580;-0.446002
2.450;-3.905974;-0.449843
2.460;-3.910245;-0.452566
2.470;-3.914596;-0.453874
2.480;-3.919392;-0.454183
2.490;-3.925192;-0.454400
2.500;-3.932714;-0.455491
2.510;-3.942698;-0.458078
2.520;-3.955665;-0.462188
2.530;-3.971654;-0.467226
2.540;-3.990073;-0.472129
2.550;-4.009721;-0.475631
2.560;-4.028976;-0.476544
2.570;-4.046075;-0.474010
2.580;-4.059409;-0.467707
2.590;-4.067803;-0.457995
2.600;-4.070770;-0.445952
2.610;-4.068687;-0.433254
2.620;-4.062795;-0.421894
2.630;-4.054990;-0.413797
2.640;-4.047437;-0.410432
2.650;-4.042113;-0.412492
2.660;-4.040400;-0.419719
2.670;-4.042794;-0.430913
2.680;-4.048793;-0.444145
2.690;-4.057014;-0.457170
2.700;-4.065542;-0.467910
2.710;-4.072442;-0.474902
2.720;-4.076286;-0.477551
2.730;-4.076521;-0.476143
2.740;-4.073560;-0.471618
2.750;-4.068553;-0.465267
2.760;-4.062953;-0.458446
2.770;-4.058013;-0.452390
2.780;-4.054423;-0.448107
2.790;-4.052177;-0.446307
2.800;-4.050706;-0.447360
2.810;-4.049163;-0.451251
2.820;-4.046741;-0.457582
2.830;-4.042899;-0.465630
2.840;-4.037448;-0.474472
2.850;-4.030494;-0.483164
2.860;-4.022352;-0.490911
2.870;-4.013457;-0.497207
2.880;-4.004328;-0.501895
2.890;-3.995507;-0.505142
2.900;-3.987478;-0.507327
2.910;-3.980542;-0.508899
2.920;-3.974698;-0.510283
2.930;-3.969605;-0.511869
2.940;-3.964642;-0.514038
2.950;-3.959062;-0.517178
2.960;-3.952196;-0.521653
2.970;-3.943633;-0.527758
2.980;-3.933299;-0.535685
2.990;-3.921414;-0.545467
3.000;-3.908330;-0.556928
3.010;-3.894352;-0.569663
3.020;-3.879640;-0.583101
3.030;-3.864238;-0.596646
3.040;-3.848196;-0.609837
3.050;-3.831659;-0.622426
3.060;-3.814867;-0.634333
3.070;-3.798052;-0.645511
3.080;-3.781350;-0.655812
3.090;-3.764810;-0.664945
3.100;-3.748529;-0.672540
3.110;-3.732820;-0.678331
3.120;-3.718270;-0.682339
3.130;-3.705622;-0.684994
3.140;-3.695521;-0.687113
3.150;-3.688258;-0.689739
3.160;-3.683647;-0.693870
3.170;-3.681104;-0.700185
3.180;-3.679867;-0.708863
3.190;-3.679232;-0.719581
3.200;-3.678699;-0.731683
3.210;-3.677971;-0.744454
3.220;-3.676888;-0.757361
3.230;-3.675351;-0.770182
3.240;-3.673298;-0.782964
3.250;-3.670729;-0.795864
3.260;-3.667735;-0.808922
3.270;-3.664520;-0.821906
3.280;-3.661378;-0.834296
3.290;-3.658661;-0.845465
3.300;-3.656733;-0.854948
3.310;-3.655927;-0.862675
3.320;-3.656476;-0.869028
3.330;-3.658448;-0.874731
3.340;-3.661667;-0.880607
3.350;-3.665681;-0.887308
3.360;-3.669777;-0.895104
3.370;-3.673092;-0.903787
3.380;-3.674799;-0.912718
3.390;-3.674311;-0.921018
3.400;-3.671455;-0.927840
3.410;-3.666529;-0.932614
3.420;-3.660236;-0.935211
3.430;-3.653527;-0.935979
3.440;-3.647388;-0.935642
3.450;-3.642642;-0.935091
3.460;-3.639775;-0.935105
3.470;-3.638834;-0.936111
3.480;-3.639420;-0.938074
3.490;-3.640810;-0.940557
3.500;-3.642155;-0.942937
3.510;-3.642725;-0.944692
3.520;-3.642120;-0.945669
3.530;-3.640377;-0.946227
3.540;-3.637938;-0.947165
3.550;-3.635478;-0.949467
3.560;-3.633635;-0.953941
3.570;-3.632770;-0.960898
3.580;-3.632841;-0.969991
3.590;-3.633456;-0.980327
3.600;-3.634049;-0.990814
3.610;-3.634106;-1.000591
3.620;-3.633361;-1.009329
3.630;-3.631890;-1.017251
3.640;-3.630069;-1.024917
3.650;-3.628408;-1.032909
3.660;-3.627326;-1.041563
3.670;-3.626997;-1.050832
3.680;-3.627337;-1.060302
3.690;-3.628146;-1.069343
3.700;-3.629282;-1.077341
3.710;-3.630746;-1.083942
3.720;-3.632598;-1.089204
3.730;-3.634805;-1.093572
3.740;-3.637117;-1.097693
3.750;-3.639088;-1.102159
3.760;-3.640212;-1.107303
3.770;-3.640115;-1.113160
3.780;-3.638705;-1.119597
3.790;-3.636218;-1.126521
3.800;-3.633143;-1.134014
3.810;-3.630060;-1.142295
3.820;-3.627481;-1.151525
3.830;-3.625732;-1.161608
3.840;-3.624899;-1.172138
3.850;-3.624846;-1.182558
3.860;-3.625282;-1.192418
3.870;-3.625827;-1.201548
3.880;-3.626047;-1.210023
3.890;-3.625472;-1.217918
3.900;-3.623632;-1.225023
3.910;-3.620160;-1.230740
3.920;-3.614921;-1.234267
3.930;-3.608148;-1.235009
3.940;-3.600500;-1.232970
3.950;-3.592971;-1.228905
3.960;-3.586624;-1.224144
3.970;-3.582220;-1.220145
3.980;-3.579922;-1.217978
3.990;-3.579211;-1.217942
4.000;-3.579088;-1.219432
4.010;-3.578480;-1.221082
4.020;-3.576622;-1.221113
4.030;-3.573225;-1.217791
4.040;-3.568404;-1.209867
4.050;-3.562458;-1.196875
4.060;-3.555692;-1.179199
4.070;-3.548344;-1.157895
4.080;-3.540616;-1.134361
4.090;-3.532742;-1.109985
4.100;-3.525037;-1.085870
4.110;-3.517874;-1.062679
4.120;-3.511598;-1.040600
4.130;-3.506442;-1.019402
4.140;-3.502481;-0.998567
4.150;-3.499661;-0.977503
4.160;-3.497841;-0.955783
4.170;-3.496837;-0.933324
4.180;-3.496467;-0.910413
4.190;-3.496603;-0.887576
4.200;-3.497178;-0.865334
4.210;-3.498154;-0.844015
4.220;-3.499469;-0.823670
4.230;-3.501015;-0.804127
4.240;-3.502666;-0.785133
4.250;-3.504331;-0.766482
4.260;-3.506009;-0.748106
4.270;-3.507825;-0.730094
4.280;-3.510038;-0.712664
4.290;-3.513004;-0.696094
4.300;-3.517103;-0.680614
4.310;-3.522654;-0.666316
4.320;-3.529850;-0.653118
4.330;-3.538745;-0.640815
4.340;-3.549275;-0.629174
4.350;-3.561327;-0.618009
4.360;-3.574820;-0.607196
4.370;-3.589735;-0.596698
4.380;-3.606083;-0.586619
4.390;-3.623811;-0.577250
4.400;-3.642758;-0.568996
4.410;-3.662724;-0.562155
4.420;-3.683651;-0.556631
4.430;-3.705835;-0.551801
4.440;-3.730010;-0.546654
4.450;-3.757205;-0.540170
4.460;-3.788312;-0.531732
4.470;-3.823504;-0.521399
4.480;-3.861746;-0.509903
4.490;-3.900680;-0.498397
4.500;-3.937005;-0.488044
4.510;-3.967276;-0.479615
4.520;-3.988827;-0.473278
4.530;-4.000510;-0.468632
4.540;-4.002992;-0.464935
4.550;-3.998516;-0.461383
4.560;-3.990233;-0.457335
4.570;-3.981341;-0.452437
4.580;-3.974322;-0.446668
4.590;-3.970519;-0.440282
4.600;-3.970107;-0.433688
4.610;-3.972388;-0.427281
4.620;-3.976192;-0.421331
4.630;-3.980261;-0.415950
4.640;-3.983531;-0.411117
4.650;-3.985334;-0.406711
4.660;-3.985500;-0.402546
4.670;-3.984311;-0.398410
4.680;-3.982305;-0.394119
4.690;-3.980002;-0.389574
4.700;-3.977690;-0.384822
4.710;-3.975375;-0.380060
4.720;-3.972914;-0.375581
4.730;-3.970206;-0.371646
4.740;-3.967341;-0.368390
4.750;-3.964612;-0.365780
4.760;-3.962434;-0.363655
4.770;-3.961212;-0.361802
4.780;-3.961205;-0.360014
4.790;-3.962434;-0.358105
4.800;-3.964684;-0.355930
4.810;-3.967600;-0.353435
4.820;-3.970836;-0.350733
4.830;-3.974181;-0.348134
4.840;-3.977593;-0.346071
4.850;-3.981140;-0.344951
4.860;-3.984917;-0.345043
4.870;-3.988997;-0.346456
4.880;-3.993427;-0.349228
4.890;-3.998210;-0.353432
4.900;-4.003225;-0.359186
4.910;-4.008093;-0.366549
4.920;-4.012112;-0.375357
4.930;-4.014375;-0.385155
4.940;-4.014049;-0.395324
4.950;-4.010698;-0.405342
4.960;-4.004477;-0.415057
4.970;-3.996105;-0.424801
4.980;-3.986597;-0.435296
4.990;-3.976887;-0.447378
5.000;-3.967520;-0.461672
5.010;-3.958567;-0.478353
5.020;-3.949759;-0.497081
5.030;-3.940722;-0.517118
5.040;-3.931188;-0.537567
5.050;-3.921079;-0.557625
5.060;-3.910492;-0.576789
5.070;-3.899620;-0.594921
5.080;-3.888683;-0.612194
5.090;-3.877852;-0.628944
5.100;-3.867184;-0.645470
5.110;-3.856591;-0.661847
5.120;-3.845875;-0.677786
5.130;-3.834815;-0.692617
5.140;-3.823312;-0.705434
5.150;-3.811509;-0.715364
5.160;-3.799846;-0.721828
5.170;-3.788992;-0.724687
5.180;-3.779659;-0.724211
5.190;-3.772362;-0.720962
5.200;-3.767178;-0.715632
5.210;-3.763614;-0.708885
5.220;-3.760652;-0.701235
5.230;-3.757015;-0.692991
5.240;-3.751548;-0.684311
5.250;-3.743605;-0.675325
5.260;-3.733302;-0.666241
5.270;-3.721560;-0.657369
5.280;-3.709901;-0.649036
5.290;-3.700032;-0.641463
5.300;-3.693318;-0.634676
5.310;-3.690286;-0.628481
5.320;-3.690346;-0.622502
5.330;-3.691875;-0.616270
5.340;-3.692662;-0.609311
5.350;-3.690587;-0.601208
5.360;-3.684273;-0.591582
5.370;-3.673451;-0.580064
5.380;-3.658924;-0.566319
5.390;-3.642178;-0.550171
5.400;-3.624838;-0.531768
5.410;-3.608202;-0.511687
5.420;-3.592972;-0.490894
5.430;-3.579248;-0.470538
5.440;-3.566705;-0.451678
5.450;-3.554875;-0.435055
5.460;-3.543387;-0.420995
5.470;-3.532112;-0.409449
5.480;-3.521170;-0.400133
5.490;-3.510842;-0.392688
5.500;-3.501439;-0.386811
5.510;-3.493205;-0.382337
5.520;-3.486265;-0.379231
5.530;-3.480641;-0.377500
5.540;-3.476298;-0.377066
5.550;-3.473207;-0.377667
5.560;-3.471396;-0.378841
5.570;-3.470933;-0.380033
5.580;-3.471835;-0.380788
5.590;-3.473953;-0.380960
5.600;-3.476900;-0.380813
5.610;-3.480085;-0.380954
5.620;-3.482823;-0.382058
5.630;-3.484501;-0.384536
5.640;-3.484707;-0.388301
5.650;-3.483301;-0.392786
5.660;-3.480384;-0.397205
5.670;-3.476218;-0.400911
5.680;-3.471140;-0.403615
5.690;-3.465530;-0.405372
5.700;-3.459814;-0.406381
5.710;-3.454445;-0.406793
5.720;-3.449809;-0.406646
5.730;-3.446089;-0.405937
5.740;-3.443178;-0.404737
5.750;-3.440692;-0.403237
5.760;-3.438108;-0.401678
5.770;-3.434928;-0.400225
5.780;-3.430820;-0.398835
5.790;-3.425673;-0.397216
5.800;-3.419572;-0.394889
5.810;-3.412736;-0.391376
5.820;-3.405429;-0.386430
5.830;-3.397880;-0.380185
5.840;-3.390216;-0.373136
5.850;-3.382444;-0.365921
5.860;-3.374484;-0.359028
5.870;-3.366236;-0.352586
5.880;-3.357646;-0.346382
5.890;-3.348747;-0.340073
5.900;-3.339669;-0.333476
5.910;-3.330612;-0.326740
5.920;-3.321813;-0.320301
5.930;-3.313499;-0.314666
5.940;-3.305866;-0.310164
5.950;-3.299062;-0.306814
5.960;-3.293173;-0.304373
5.970;-3.288188;-0.302542
5.980;-3.283959;-0.301189
5.990;-3.280184;-0.300444
6.000;-3.276448;-0.300594
6.010;-3.272317;-0.301799
6.020;-3.267477;-0.303861
6.030;-3.261834;-0.306175
6.040;-3.255513;-0.307942
6.050;-3.248759;-0.308484
6.060;-3.241806;-0.307526
6.070;-3.234823;-0.305310
6.080;-3.227933;-0.302509
6.090;-3.221271;-0.299999
6.100;-3.214994;-0.298556
6.110;-3.209251;-0.298579
6.120;-3.204118;-0.299949
6.130;-3.199505;-0.302082
6.140;-3.195083;-0.304191
6.150;-3.190257;-0.305614
6.160;-3.184214;-0.306061
6.170;-3.176067;-0.305661
6.180;-3.165034;-0.304839
6.190;-3.150643;-0.304130
6.200;-3.132880;-0.304018
6.210;-3.112266;-0.304838
6.220;-3.089802;-0.306712
6.230;-3.066760;-0.309530
6.240;-3.044367;-0.312971
6.250;-3.023516;-0.316602
6.260;-3.004637;-0.320009
6.270;-2.987793;-0.322934
6.280;-2.972898;-0.325347
6.290;-2.959895;-0.327449
6.300;-2.948785;-0.329598
6.310;-2.939538;-0.332173
6.320;-2.931953;-0.335412
6.330;-2.925594;-0.339283
6.340;-2.919845;-0.343420
6.350;-2.914076;-0.347176
6.360;-2.907848;-0.349782
6.370;-2.901076;-0.350573
6.380;-2.894041;-0.349223
6.390;-2.887282;-0.345910
6.400;-2.881423;-0.341353
6.410;-2.877026;-0.336644
6.420;-2.874508;-0.332899
6.430;-2.874119;-0.330855
6.440;-2.875946;-0.330612
6.450;-2.879913;-0.331644
6.460;-2.885796;-0.333089
6.470;-2.893258;-0.334145
6.480;-2.901950;-0.334392
6.490;-2.911616;-0.333879
6.500;-2.922166;-0.333004
6.510;-2.933636;-0.332273
6.520;-2.946076;-0.332071
6.530;-2.959413;-0.332570
6.540;-2.973394;-0.333814
6.550;-2.987641;-0.335894
6.560;-3.001802;-0.339063
6.570;-3.015692;-0.343669
6.580;-3.029333;-0.349911
6.590;-3.042897;-0.357590
6.600;-3.056579;-0.366033
6.610;-3.070508;-0.374269
6.620;-3.084706;-0.381361
6.630;-3.099094;-0.386753
6.640;-3.113535;-0.390460
6.650;-3.127908;-0.393079
6.660;-3.142208;-0.395600
6.670;-3.156632;-0.399111
6.680;-3.171593;-0.404482
6.690;-3.187632;-0.412163
6.700;-3.205228;-0.422149
6.710;-3.224601;-0.434102
6.720;-3.245577;-0.447562
6.730;-3.267603;-0.462129
6.740;-3.289895;-0.477558
6.750;-3.311622;-0.493723
6.760;-3.332067;-0.510509
6.770;-3.350714;-0.527665
6.780;-3.367323;-0.544702
6.790;-3.382054;-0.560891
6.800;-3.395626;-0.575386
6.810;-3.409407;-0.587424
6.820;-3.425302;-0.596526
6.830;-3.445337;-0.602643
6.840;-3.471005;-0.606178
6.850;-3.502588;-0.607857
6.860;-3.538765;-0.608499
6.870;-3.576705;-0.608800
6.880;-3.612673;-0.609224
6.890;-3.642998;-0.610047
6.900;-3.665048;-0.611479
6.910;-3.677913;-0.613787
6.920;-3.682575;-0.617328
6.930;-3.681569;-0.622445
6.940;-3.678262;-0.629294
6.950;-3.675950;-0.637689
6.960;-3.677035;-0.647078
6.970;-3.682525;-0.656671
6.980;-3.692002;-0.665676
6.990;-3.704063;-0.673510
7.000;-3.717000;-0.679926
7.010;-3.729443;-0.685046
7.020;-3.740720;-0.689332
7.030;-3.750866;-0.693517
7.040;-3.760352;-0.698475
7.050;-3.769710;-0.704989
7.060;-3.779255;-0.713447
7.070;-3.789004;-0.723605
7.080;-3.798795;-0.734540
7.090;-3.808506;-0.744866
7.100;-3.818224;-0.753142
7.110;-3.828284;-0.758315
7.120;-3.839138;-0.760009
7.130;-3.851136;-0.758550
7.140;-3.864315;-0.754734
7.150;-3.878301;-0.749466
7.160;-3.892328;-0.743433
7.170;-3.905404;-0.736925
7.180;-3.916574;-0.729857
7.190;-3.925221;-0.721932
7.200;-3.931285;-0.712844
7.210;-3.935274;-0.702447
7.220;-3.938070;-0.690805
7.230;-3.940628;-0.678162
7.240;-3.943711;-0.664846
7.250;-3.947759;-0.651183
7.260;-3.952864;-0.637462
7.270;-3.958799;-0.623941
7.280;-3.965063;-0.610895
7.290;-3.970952;-0.598634
7.300;-3.975685;-0.587479
7.310;-3.978600;-0.577652
7.320;-3.979371;-0.569153
7.330;-3.978143;-0.561666
7.340;-3.975547;-0.554564
7.350;-3.972611;-0.547055
7.360;-3.970590;-0.538431
7.370;-3.970757;-0.528361
7.380;-3.974137;-0.517096
7.390;-3.981217;-0.505482
7.400;-3.991699;-0.494699
7.410;-4.004422;-0.485828
7.420;-4.017544;-0.479421
7.430;-4.028941;-0.475300
7.440;-4.036698;-0.472663
7.450;-4.039501;-0.470469
7.460;-4.036822;-0.467873
7.470;-4.028898;-0.464531
7.480;-4.016572;-0.460630
7.490;-4.001093;-0.456685
7.500;-3.983911;-0.453245
7.510;-3.966498;-0.450703
7.520;-3.950181;-0.449251
7.530;-3.935981;-0.448950
7.540;-3.924488;-0.449781
7.550;-3.915785;-0.451619
7.560;-3.909489;-0.454184
7.570;-3.904893;-0.457035
7.580;-3.901179;-0.459683
7.590;-3.897629;-0.461766
7.600;-3.893801;-0.463195
7.610;-3.889626;-0.464189
7.620;-3.885417;-0.465168
7.630;-3.881764;-0.466555
7.640;-3.879310;-0.468573
7.650;-3.878505;-0.471134
7.660;-3.879434;-0.473861
7.670;-3.881811;-0.476248
7.680;-3.885134;-0.477851
