Time[s];COPx[cm];COPy[cm]
0.010;0.254990;0.116095
0.020;0.273938;0.122228
0.030;0.293321;0.128404
0.040;0.313225;0.134805
0.050;0.333179;0.141677
0.060;0.352209;0.149225
0.070;0.369103;0.157467
0.080;0.382763;0.166160
0.090;0.392498;0.174853
0.100;0.398163;0.183060
0.110;0.400115;0.190454
0.120;0.399037;0.196997
0.130;0.395719;0.203004
0.140;0.390859;0.209155
0.150;0.384953;0.216457
0.160;0.378269;0.226125
0.170;0.370935;0.239345
0.180;0.363082;0.256942
0.190;0.354965;0.279119
0.200;0.346993;0.305386
0.210;0.339652;0.334730
0.220;0.333389;0.365906
0.230;0.328506;0.397734
0.240;0.325102;0.429356
0.250;0.323063;0.460389
0.260;0.322112;0.490931
0.270;0.321929;0.521395
0.280;0.322316;0.552219
0.290;0.323321;0.583573
0.300;0.325237;0.615182
0.310;0.328423;0.646357
0.320;0.333018;0.676217
0.330;0.338665;0.704019
0.340;0.344411;0.729439
0.350;0.348829;0.752698
0.360;0.350337;0.774465
0.370;0.347615;0.795545
0.380;0.339977;0.816458
0.390;0.327570;0.837081
0.400;0.311324;0.856542
0.410;0.292666;0.873481
0.420;0.273160;0.886584
0.430;0.254217;0.895134
0.440;0.236951;0.899298
0.450;0.222130;0.900025
0.460;0.210182;0.898660
0.470;0.201228;0.896462
0.480;0.195148;0.894230
0.490;0.191651;0.892160
0.500;0.190329;0.889925
0.510;0.190675;0.886884
0.520;0.192122;0.882297
0.530;0.194138;0.875494
0.540;0.196379;0.865975
0.550;0.198814;0.853485
0.560;0.201744;0.838028
0.570;0.205663;0.819835
0.580;0.211028;0.799283
0.590;0.218050;0.776845
0.600;0.226592;0.753059
0.610;0.236221;0.728470
0.620;0.246385;0.703528
0.630;0.256629;0.678476
0.640;0.266734;0.653309
0.650;0.276725;0.627836
0.660;0.286766;0.601823
0.670;0.297011;0.575127
0.680;0.307506;0.547796
0.690;0.318170;0.520081
0.700;0.328870;0.492397
0.710;0.339546;0.465214
0.720;0.350329;0.438933
0.730;0.361570;0.413754
0.740;0.373746;0.389588
0.750;0.387263;0.366042
0.760;0.402236;0.342480
0.770;0.418372;0.318176
0.780;0.435025;0.292520
0.790;0.451426;0.265249
0.800;0.466965;0.236570
0.810;0.481365;0.207129
0.820;0.494679;0.177813
0.830;0.507121;0.149487
0.840;0.518839;0.122780
0.850;0.529787;0.098005
0.860;0.539757;0.075227
0.870;0.548567;0.054426
0.880;0.556239;0.035635
0.890;0.563034;0.018973
0.900;0.569323;0.004567
0.910;0.575386;-0.007551
0.920;0.581259;-0.017509
0.930;0.586738;-0.025561
0.940;0.591532;-0.032012
0.950;0.595483;-0.037124
0.960;0.598726;-0.041040
0.970;0.601723;-0.043743
0.980;0.605164;-0.045043
0.990;0.609789;-0.044607
1.000;0.616203;-0.042031
1.010;0.624737;-0.036937
1.020;0.635370;-0.029114
1.030;0.647739;-0.018622
1.040;0.661215;-0.005834
1.050;0.675030;0.008640
1.060;0.688420;0.024123
1.070;0.700748;0.040090
1.080;0.711577;0.056348
1.090;0.720667;0.073110
1.100;0.727925;0.090918
1.110;0.733338;0.110446
1.120;0.736924;0.132298
1.130;0.738700;0.156873
1.140;0.738669;0.184345
1.150;0.736814;0.214685
1.160;0.733100;0.247652
1.170;0.727464;0.282741
1.180;0.719788;0.319168
1.190;0.709830;0.355972
1.200;0.697148;0.392262
1.210;0.681079;0.427485
1.220;0.660818;0.461582
1.230;0.635592;0.494931
1.240;0.604842;0.528126
1.250;0.568354;0.561716
1.260;0.526275;0.596066
1.270;0.479058;0.631336
1.280;0.427389;0.667516
1.290;0.372188;0.704415
1.300;0.314669;0.741601
1.310;0.256390;0.778376
1.320;0.199213;0.813873
1.330;0.145127;0.847250
1.340;0.095983;0.877889
1.350;0.053174;0.905475
1.360;0.017332;0.929916
1.370;-0.011873;0.951193
1.380;-0.035717;0.969249
1.390;-0.056106;0.983999
1.400;-0.075009;0.995416
1.410;-0.093837;1.003592
1.420;-0.113010;1.008709
1.430;-0.131874;1.010934
1.440;-0.148985;1.010332
1.450;-0.162604;1.006864
1.460;-0.171204;1.000473
1.470;-0.173753;0.991211
1.480;-0.169778;0.979310
1.490;-0.159293;0.965172
1.500;-0.142734;0.949277
1.510;-0.120961;0.932039
1.520;-0.095265;0.913658
1.530;-0.067283;0.894053
1.540;-0.038786;0.872944
1.550;-0.011390;0.850062
1.560;0.013715;0.825376
1.570;0.035913;0.799174
1.580;0.055151;0.771962
1.590;0.071778;0.744246
1.600;0.086331;0.716335
1.610;0.099359;0.688265
1.620;0.111397;0.659840
1.630;0.123064;0.630751
1.640;0.135203;0.600695
1.650;0.148922;0.569422
1.660;0.165460;0.536716
1.670;0.185920;0.502362
1.680;0.210959;0.466143
1.690;0.240597;0.427896
1.700;0.274206;0.387628
1.710;0.310658;0.345635
1.720;0.348553;0.302587
1.730;0.386426;0.259512
1.740;0.422914;0.217687
1.750;0.456886;0.178436
1.760;0.487559;0.142889
1.770;0.514589;0.111781
1.780;0.538133;0.085318
1.790;0.558848;0.063160
1.800;0.577840;0.044529
1.810;0.596540;0.028403
1.820;0.616522;0.013761
1.830;0.639279;-0.000214
1.840;0.665995;-0.013990
1.850;0.697336;-0.027628
1.860;0.733312;-0.040801
1.870;0.773283;-0.052895
1.880;0.816113;-0.063206
1.890;0.860463;-0.071196
1.900;0.905110;-0.076726
1.910;0.949178;-0.080177
1.920;0.992214;-0.082376
1.930;1.034089;-0.084332
1.940;1.074791;-0.086877
1.950;1.114220;-0.090373
1.960;1.152084;-0.094610
1.970;1.187965;-0.098901
1.980;1.221519;-0.102273
1.990;1.252671;-0.103688
2.000;1.281695;-0.102246
2.010;1.309096;-0.097376
2.020;1.335355;-0.088957
2.030;1.360620;-0.077337
2.040;1.384495;-0.063225
2.050;1.406029;-0.047505
2.060;1.423924;-0.031025
2.070;1.436914;-0.014451
2.080;1.444153;0.001755
2.090;1.445458;0.017268
2.100;1.441270;0.031810
2.110;1.432360;0.045137
2.120;1.419410;0.057108
2.130;1.402673;0.067767
2.140;1.381843;0.077367
2.150;1.356158;0.086312
2.160;1.324652;0.095078
2.170;1.286404;0.104140
2.180;1.240699;0.113946
2.190;1.187092;0.124903
2.200;1.125461;0.137376
2.210;1.056113;0.151656
2.220;0.979928;0.167932
2.230;0.898470;0.186240
2.240;0.813957;0.206432
2.250;0.729056;0.228167
2.260;0.646531;0.250921
2.270;0.568812;0.273994
2.280;0.497607;0.296547
2.290;0.433658;0.317696
2.300;0.376676;0.336683
2.310;0.325449;0.353053
2.320;0.278047;0.366745
2.330;0.232117;0.378034
2.340;0.185217;0.387343
2.350;0.135180;0.395014
2.360;0.080479;0.401174
2.370;0.020549;0.405751
2.380;-0.044033;0.408617
2.390;-0.111566;0.409724
2.400;-0.179483;0.409128
2.410;-0.244760;0.406913
2.420;-0.304373;0.403064
2.430;-0.355686;0.397403
2.440;-0.396730;0.389623
2.450;-0.426362;0.379437
2.460;-0.444294;0.366785
2.470;-0.450983;0.351967
2.480;-0.447410;0.335607
2.490;-0.434824;0.318446
2.500;-0.414537;0.301085
2.510;-0.387828;0.283819
2.520;-0.355950;0.266637
2.530;-0.320161;0.249374
2.540;-0.281725;0.231929
2.550;-0.241853;0.214427
2.560;-0.201593;0.197249
2.570;-0.161709;0.180882
2.580;-0.122564;0.165645
2.590;-0.084039;0.151449
2.600;-0.045503;0.137729
2.610;-0.005912;0.123571
2.620;0.035999;0.107947
2.630;0.081473;0.089965
2.640;0.131567;0.069055
2.650;0.187104;0.045096
2.660;0.248725;0.018459
2.670;0.316917;-0.010045
2.680;0.391904;-0.039334
2.690;0.473432;-0.068291
2.700;0.560556;-0.096024
2.710;0.651619;-0.122062
2.720;0.744469;-0.146423
2.730;0.836852;-0.169498
2.740;0.926813;-0.191774
2.750;1.012945;-0.213538
2.760;1.094444;-0.234719
2.770;1.170976;-0.254961
2.780;1.242466;-0.273851
2.790;1.308927;-0.291184
2.800;1.370417;-0.307094
2.810;1.427130;-0.322016
2.820;1.479511;-0.336494
2.830;1.528262;-0.350933
2.840;1.574176;-0.365391
2.850;1.617887;-0.379436
2.860;1.659689;-0.392157
2.870;1.699546;-0.402342
2.880;1.737276;-0.408827
2.890;1.772795;-0.410881
2.900;1.806273;-0.408476
2.910;1.838122;-0.402319
2.920;1.868819;-0.393591
2.930;1.898633;-0.383501
2.940;1.927368;-0.372820
2.950;1.954259;-0.361634
2.960;1.978071;-0.349423
2.970;1.997392;-0.335419
2.980;2.010978;-0.319064
2.990;2.018052;-0.300328
3.000;2.018439;-0.279781
3.010;2.012520;-0.258411
3.020;2.000989;-0.237293
3.030;1.984508;-0.217234
3.040;1.963390;-0.198519
3.050;1.937472;-0.180858
3.060;1.906240;-0.163547
3.070;1.869120;-0.145788
3.080;1.825774;-0.126992
3.090;1.776253;-0.106952
3.100;1.720996;-0.085822
3.110;1.660739;-0.063967
3.120;1.596451;-0.041771
3.130;1.529283;-0.019489
3.140;1.460525;0.002854
3.150;1.391513;0.025480
3.160;1.323439;0.048780
3.170;1.257074;0.073147
3.180;1.192429;0.098808
3.190;1.128517;0.125765
3.200;1.063340;0.153894
3.210;0.994207;0.183106
3.220;0.918336;0.213447
3.230;0.833593;0.245034
3.240;0.739182;0.277871
3.250;0.636092;0.311687
3.260;0.527169;0.345892
3.270;0.416743;0.379648
3.280;0.309855;0.411978
3.290;0.211285;0.441873
3.300;0.124627;0.468387
3.310;0.051695;0.490735
3.320;-0.007572;0.508408
3.330;-0.054680;0.521241
3.340;-0.091779;0.529444
3.350;-0.120810;0.533565
3.360;-0.142921;0.534427
3.370;-0.158329;0.533032
3.380;-0.166649;0.530376
3.390;-0.167478;0.527206
3.400;-0.160983;0.523825
3.410;-0.148246;0.520084
3.420;-0.131245;0.515600
3.430;-0.112499;0.510115
3.440;-0.094525;0.503788
3.450;-0.079286;0.497290
3.460;-0.067787;0.491619
3.470;-0.059905;0.487736
3.480;-0.054502;0.486156
3.490;-0.049765;0.486664
3.500;-0.043651;0.488274
3.510;-0.034271;0.489448
3.520;-0.020091;0.488522
3.530;0.000067;0.484188
3.540;0.027162;0.475862
3.550;0.062081;0.463804
3.560;0.105672;0.448909
3.570;0.158594;0.432248
3.580;0.221012;0.414527
3.590;0.292279;0.395754
3.600;0.370731;0.375269
3.610;0.453700;0.352145
3.620;0.537770;0.325771
3.630;0.619246;0.296356
3.640;0.694746;0.265138
3.650;0.761769;0.234201
3.660;0.819109;0.205923
3.670;0.866991;0.182274
3.680;0.906943;0.164210
3.690;0.941431;0.151426
3.700;0.973390;0.142520
3.710;1.005756;0.135490
3.720;1.041075;0.128369
3.730;1.081209;0.119798
3.740;1.127148;0.109352
3.750;1.178903;0.097557
3.760;1.235531;0.085576
3.770;1.295320;0.074704
3.780;1.356163;0.065852
3.790;1.416074;0.059200
3.800;1.473658;0.054140
3.810;1.528349;0.049499
3.820;1.580339;0.044002
3.830;1.630240;0.036759
3.840;1.678619;0.027594
3.850;1.725533;0.017070
3.860;1.770196;0.006261
3.870;1.810913;-0.003568
3.880;1.845336;-0.011247
3.890;1.870978;-0.015914
3.900;1.885812;-0.017172
3.910;1.888746;-0.015161
3.920;1.879787;-0.010523
3.930;1.859867;-0.004267
3.940;1.830434;0.002420
3.950;1.792999;0.008413
3.960;1.748799;0.012891
3.970;1.698679;0.015519
3.980;1.643194;0.016497
3.990;1.582833;0.016454
4.000;1.518259;0.016223
4.010;1.450426;0.016585
4.020;1.380515;0.018078
4.030;1.309722;0.020896
4.040;1.238983;0.024913
4.050;1.168753;0.029830
4.060;1.098942;0.035385
4.070;1.029026;0.041547
4.080;0.958319;0.048554
4.090;0.886252;0.056768
4.100;0.812579;0.066389
4.110;0.737414;0.077217
4.120;0.661165;0.088627
4.130;0.584406;0.099803
4.140;0.507776;0.110092
4.150;0.431965;0.119259
4.160;0.357771;0.127490
4.170;0.286191;0.135177
4.180;0.218406;0.142631
4.190;0.155633;0.149934
4.200;0.098849;0.156965
4.210;0.048540;0.163552
4.220;0.004575;0.169593
4.230;-0.033740;0.175074
4.240;-0.067481;0.179983
4.250;-0.097855;0.184197
4.260;-0.125956;0.187421
4.270;-0.152559;0.189226
4.280;-0.178043;0.189158
4.290;-0.202476;0.186875
4.300;-0.225813;0.182288
4.310;-0.248088;0.175694
4.320;-0.269445;0.167833
4.330;-0.290011;0.159809
4.340;-0.309690;0.152832
4.350;-0.328033;0.147847
4.360;-0.344262;0.145236
4.370;-0.357403;0.144727
4.380;-0.366454;0.145549
4.390;-0.370538;0.146747
4.400;-0.369025;0.147507
4.410;-0.361644;0.147383
4.420;-0.348544;0.146354
4.430;-0.330255;0.144732
4.440;-0.307523;0.142983
4.450;-0.281079;0.141529
4.460;-0.251450;0.140581
4.470;-0.218916;0.140070
4.480;-0.183582;0.139686
4.490;-0.145457;0.138987
4.500;-0.104448;0.137539
4.510;-0.060268;0.135003
4.520;-0.012357;0.131203
4.530;0.040103;0.126164
4.540;0.098038;0.120130
4.550;0.162230;0.113543
4.560;0.233018;0.106972
4.570;0.310047;0.101017
4.580;0.392155;0.096232
4.590;0.477453;0.093104
4.600;0.563594;0.092095
4.610;0.648156;0.093704
4.620;0.729027;0.098416
4.630;0.804692;0.106506
4.640;0.874342;0.117741
4.650;0.937773;0.131201
4.660;0.995147;0.145391
4.670;1.046730;0.158693
4.680;1.092770;0.169956
4.690;1.133556;0.178920
4.700;1.169583;0.186258
4.710;1.201661;0.193218
4.720;1.230858;0.201073
4.730;1.258295;0.210628
4.740;1.284852;0.221967
4.750;1.310916;0.234453
4.760;1.336273;0.246929
4.770;1.360178;0.258053
4.780;1.381576;0.266677
4.790;1.399370;0.272122
4.800;1.412645;0.274248
4.810;1.420812;0.273318
4.820;1.423642;0.269766
4.830;1.421220;0.264009
4.840;1.413808;0.256347
4.850;1.401668;0.246938
4.860;1.384921;0.235830
4.870;1.363510;0.223043
4.880;1.337269;0.208690
4.890;1.306045;0.193087
4.900;1.269772;0.176776
4.910;1.228495;0.160421
4.920;1.182373;0.144624
4.930;1.131739;0.129735
4.940;1.077209;0.115726
4.950;1.019765;0.102159
4.960;0.960729;0.088268
4.970;0.901591;0.073133
4.980;0.843725;0.055915
4.990;0.788100;0.036100
5.000;0.735071;0.013686
5.010;0.684350;-0.010745
5.020;0.635168;-0.036130
5.030;0.586595;-0.061190
5.040;0.537884;-0.084767
5.050;0.488706;-0.106088
5.060;0.439213;-0.124871
5.070;0.389926;-0.141263
5.080;0.341543;-0.155657
5.090;0.294707;-0.168467
5.100;0.249838;-0.179932
5.110;0.207073;-0.190010
5.120;0.166335;-0.198412
5.130;0.127482;-0.204769
5.140;0.090450;-0.208857
5.150;0.055360;-0.210793
5.160;0.022522;-0.211088
5.170;-0.007662;-0.210547
5.180;-0.034850;-0.210034
5.190;-0.058902;-0.210174
5.200;-0.079964;-0.211087
5.210;-0.098469;-0.212285
5.220;-0.115074;-0.212798
5.230;-0.130547;-0.211509
5.240;-0.145631;-0.207560
5.250;-0.160860;-0.200663
5.260;-0.176364;-0.191183
5.270;-0.191690;-0.179989
5.280;-0.205735;-0.168139
5.290;-0.216818;-0.156529
5.300;-0.222970;-0.145618
5.310;-0.222373;-0.135309
5.320;-0.213841;-0.125029
5.330;-0.197170;-0.113993
5.340;-0.173186;-0.101535
5.350;-0.143462;-0.087395
5.360;-0.109790;-0.071847
5.370;-0.073616;-0.055632
5.380;-0.035666;-0.039737
5.390;0.004080;-0.025098
5.400;0.046083;-0.012339
5.410;0.090776;-0.001643
5.420;0.138159;0.007227
5.430;0.187686;0.014772
5.440;0.238481;0.021561
5.450;0.289767;0.028064
5.460;0.341255;0.034572
5.470;0.393262;0.041216
5.480;0.446500;0.048034
5.490;0.501643;0.055034
5.500;0.558914;0.062214
5.510;0.617898;0.069537
5.520;0.677642;0.076889
5.530;0.736971;0.084049
5.540;0.794869;0.090681
5.550;0.850776;0.096372
5.560;0.904685;0.100705
5.570;0.957034;0.103341
5.580;1.008457;0.104088
5.590;1.059501;0.102945
5.600;1.110389;0.100150
5.610;1.160885;0.096211
5.620;1.210277;0.091870
5.630;1.257519;0.087967
5.640;1.301470;0.085226
5.650;1.341174;0.084049
5.660;1.376076;0.084435
5.670;1.406115;0.086056
5.680;1.431672;0.088439
5.690;1.453412;0.091164
5.700;1.472086;0.093982
5.710;1.488379;0.096825
5.720;1.502841;0.099725
5.730;1.515898;0.102703
5.740;1.527881;0.105689
5.750;1.539010;0.108512
5.760;1.549320;0.110963
5.770;1.558579;0.112895
5.780;1.566278;0.114312
5.790;1.571754;0.115414
5.800;1.574401;0.116569
5.810;1.573868;0.118193
5.820;1.570132;0.120554
5.830;1.563419;0.123613
5.840;1.554042;0.126972
5.850;1.542250;0.130016
5.860;1.528128;0.132172
5.870;1.511534;0.133186
5.880;1.492047;0.133269
5.890;1.468944;0.133077
5.900;1.441289;0.133510
5.910;1.408175;0.135427
5.920;1.369063;0.139388
5.930;1.324068;0.145523
5.940;1.274056;0.153557
5.950;1.220480;0.162949
5.960;1.165042;0.173053
5.970;1.109334;0.183259
5.980;1.054578;0.193090
5.990;1.001529;0.202225
6.000;0.950536;0.210447
6.010;0.901689;0.217544
6.020;0.854957;0.223252
6.030;0.810258;0.227251
6.040;0.767456;0.229233
6.050;0.726370;0.228975
6.060;0.686852;0.226412
6.070;0.648871;0.221679
6.080;0.612515;0.215118
6.090;0.577855;0.207215
6.100;0.544752;0.198479
6.110;0.512755;0.189329
6.120;0.481219;0.180014
6.130;0.449642;0.170631
6.140;0.418116;0.161205
6.150;0.387662;0.151818
6.160;0.360288;0.142708
6.170;0.338653;0.134321
6.180;0.325441;0.127259
6.190;0.322626;0.122123
6.200;0.330907;0.119279
6.210;0.349466;0.118681
6.220;0.376107;0.119830
6.230;0.407705;0.121940
6.240;0.440809;0.124238
6.250;0.472206;0.126237
6.260;0.499328;0.127861
6.270;0.520450;0.129342
6.280;0.534726;0.130965
6.290;0.542155;0.132804
6.300;0.543536;0.134587
6.310;0.540411;0.135767
6.320;0.534948;0.135772
6.330;0.529675;0.134315
6.340;0.527093;0.131621
6.350;0.529231;0.128436
6.360;0.537314;0.125769
6.370;0.551619;0.124503
6.380;0.571552;0.125046
6.390;0.595901;0.127179
6.400;0.623173;0.130141
6.410;0.651940;0.132892
6.420;0.681095;0.134470
6.430;0.710002;0.134305
6.440;0.738512;0.132427
6.450;0.766882;0.129456
6.460;0.795626;0.126421
6.470;0.825328;0.124437
6.480;0.856484;0.124364
6.490;0.889406;0.126561
6.500;0.924200;0.130842
6.510;0.960776;0.136638
6.520;0.998831;0.143275
6.530;1.037795;0.150228
6.540;1.076794;0.157242
6.550;1.114715;0.164330
6.560;1.150392;0.171665
6.570;1.182848;0.179427
6.580;1.211479;0.187647
6.590;1.236109;0.196095
6.600;1.256886;0.204295
6.610;1.274095;0.211653
6.620;1.287956;0.217710
6.630;1.298508;0.222394
6.640;1.305611;0.226142
6.650;1.309056;0.229816
6.660;1.308692;0.234430
6.670;1.304482;0.240834
6.680;1.296442;0.249472
6.690;1.284524;0.260311
6.700;1.268537;0.272905
6.710;1.248220;0.286546
6.720;1.223466;0.300413
6.730;1.194578;0.313690
6.740;1.162395;0.325640
6.750;1.128181;0.335711
6.760;1.093285;0.343675
6.770;1.058724;0.349700
6.780;1.024875;0.354294
6.790;0.991399;0.358083
6.800;0.957413;0.361548
6.810;0.921816;0.364864
6.820;0.883655;0.367920
6.830;0.842416;0.370497
6.840;0.798183;0.372479
6.850;0.751642;0.373978
6.860;0.703904;0.375320
6.870;0.656200;0.376915
6.880;0.609510;0.379069
6.890;0.564235;0.381836
6.900;0.519990;0.384982
6.910;0.475605;0.388073
6.920;0.429373;0.390616
6.930;0.379467;0.392167
6.940;0.324377;0.392344
6.950;0.263242;0.390801
6.960;0.196009;0.387206
6.970;0.123480;0.381296
6.980;0.047259;0.372981
6.990;-0.030347;0.362423
7.000;-0.106533;0.350064
7.010;-0.178322;0.336614
7.020;-0.243027;0.323027
7.030;-0.298746;0.310436
7.040;-0.344712;0.300003
7.050;-0.381291;0.292658
7.060;-0.409618;0.288823
7.070;-0.431026;0.288251
7.080;-0.446546;0.290074
7.090;-0.456736;0.293064
7.100;-0.461858;0.296007
7.110;-0.462245;0.298034
7.120;-0.458585;0.298821
7.130;-0.451890;0.298576
7.140;-0.443174;0.297850
7.150;-0.432996;0.297286
7.160;-0.421153;0.297372
7.170;-0.406691;0.298292
7.180;-0.388212;0.299876
7.190;-0.364298;0.301662
7.200;-0.333840;0.303013
7.210;-0.296158;0.303286
7.220;-0.250954;0.302008
7.230;-0.198214;0.299057
7.240;-0.138184;0.294726
7.250;-0.071463;0.289611
7.260;0.000837;0.284326
7.270;0.076968;0.279208
7.280;0.154584;0.274191
7.290;0.231017;0.268900
7.300;0.303752;0.262875
7.310;0.370979;0.255768
7.320;0.432074;0.247435
7.330;0.487851;0.237927
7.340;0.540511;0.227422
7.350;0.593255;0.216138
7.360;0.649643;0.204213
7.370;0.712844;0.191604
7.380;0.785029;0.178044
7.390;0.867056;0.163156
7.400;0.958482;0.146662
7.410;1.057795;0.128590
7.420;1.162722;0.109334
7.430;1.270527;0.089554
7.440;1.378288;0.069949
7.450;1.483136;0.051036
7.460;1.582482;0.033037
7.470;1.674196;0.015923
7.480;1.756699;-0.000413
7.490;1.828965;-0.015971
7.500;1.890402;-0.030564
7.510;1.940699;-0.043909
7.520;1.979744;-0.055829
7.530;2.007688;-0.066396
7.540;2.025091;-0.075900
7.550;2.032998;-0.084669
7.560;2.032800;-0.092871
7.570;2.025907;-0.100412
7.580;2.013395;-0.106959
7.590;1.995830;-0.112000
7.600;1.973361;-0.114901
7.610;1.946026;-0.115013
7.620;1.914083;-0.111847
7.630;1.878237;-0.105265
7.640;1.839672;-0.095548
7.650;1.799902;-0.083261
7.660;1.760489;-0.068989
7.670;1.722740;-0.053121
7.680;1.687451;-0.035806
7.690;1.654779;-0.017081
7.700;1.624276;0.002932
7.710;1.595086;0.023904
7.720;1.566216;0.045336
7.730;1.536791;0.066711
7.740;1.506199;0.087639
7.750;1.474112;0.107920
7.760;1.440407;0.127542
7.770;1.405035;0.146669
7.780;1.367870;0.165603
7.790;1.328615;0.184665
7.800;1.286773;0.203958
7.810;1.241727;0.223136
7.820;1.192864;0.241325
7.830;1.139744;0.257297
7.840;1.082253;0.269850
7.850;1.020719;0.278198
7.860;0.955964;0.282179
7.870;0.889224;0.282202
7.880;0.821934;0.278981
7.890;0.755422;0.273260
7.900;0.690620;0.265656
7.910;0.627889;0.256670
7.920;0.567048;0.246788
7.930;0.507576;0.236583
7.940;0.448899;0.226714
7.950;0.390663;0.217811
7.960;0.332883;0.210265
7.970;0.275973;0.204023
7.980;0.220702;0.198530
7.990;0.168153;0.192849
8.000;0.119690;0.185962
8.010;0.076911;0.177121
8.020;0.041541;0.166102
8.030;0.015254;0.153271
8.040;-0.000565;0.139422
8.050;-0.005094;0.125479
8.060;0.001676;0.112202
8.070;0.018805;0.099993
8.080;0.044449;0.088863
8.090;0.076090;0.078536
8.100;0.110902;0.068628
8.110;0.146132;0.058838
8.120;0.179420;0.049101
8.130;0.209006;0.039643
8.140;0.233847;0.030907
8.150;0.253667;0.023348
8.160;0.268975;0.017206
8.170;0.281039;0.012396
8.180;0.291817;0.008543
8.190;0.303813;0.005116
