Time[s];COPx[cm];COPy[cm]
0.010;-1.733750;0.629673
0.020;-1.731440;0.629218
0.030;-1.729713;0.628960
0.040;-1.729005;0.629130
0.050;-1.729467;0.629999
0.060;-1.730939;0.631837
0.070;-1.733021;0.634839
0.080;-1.735169;0.639039
0.090;-1.736808;0.644268
0.100;-1.737433;0.650191
0.110;-1.736691;0.656398
0.120;-1.734443;0.662529
0.130;-1.730812;0.668365
0.140;-1.726196;0.673869
0.150;-1.721200;0.679141
0.160;-1.716484;0.684328
0.170;-1.712556;0.689540
0.180;-1.709576;0.694807
0.190;-1.707287;0.700094
0.200;-1.705108;0.705357
0.210;-1.702379;0.710601
0.220;-1.698631;0.715934
0.230;-1.693738;0.721582
0.240;-1.687908;0.727823
0.250;-1.681535;0.734857
0.260;-1.675015;0.742652
0.270;-1.668600;0.750846
0.280;-1.662351;0.758807
0.290;-1.656166;0.765827
0.300;-1.649823;0.771398
0.310;-1.643019;0.775429
0.320;-1.635378;0.778296
0.330;-1.626460;0.780691
0.340;-1.615791;0.783347
0.350;-1.602954;0.786737
0.360;-1.587728;0.790903
0.370;-1.570250;0.795456
0.380;-1.551106;0.799772
0.390;-1.531293;0.803294
0.400;-1.512004;0.805781
0.410;-1.494302;0.807376
0.420;-1.478802;0.808472
0.430;-1.465516;0.809463
0.440;-1.453931;0.810538
0.450;-1.443287;0.811622
0.460;-1.432925;0.812464
0.470;-1.422556;0.812800
0.480;-1.412352;0.812489
0.490;-1.402857;0.811552
0.500;-1.394750;0.810083
0.510;-1.388578;0.808102
0.520;-1.384517;0.805425
0.530;-1.382289;0.801680
0.540;-1.381238;0.796465
0.550;-1.380567;0.789579
0.560;-1.379597;0.781198
0.570;-1.377957;0.771883
0.580;-1.375627;0.762429
0.590;-1.372864;0.753649
0.600;-1.370085;0.746196
0.610;-1.367759;0.740497
0.620;-1.366358;0.736736
0.630;-1.366302;0.734866
0.640;-1.367900;0.734603
0.650;-1.371241;0.735453
0.660;-1.376117;0.736785
0.670;-1.382019;0.737946
0.680;-1.388245;0.738383
0.690;-1.394098;0.737724
0.700;-1.399083;0.735793
0.710;-1.403045;0.732596
0.720;-1.406208;0.728306
0.730;-1.409123;0.723253
0.740;-1.412523;0.717869
0.750;-1.417135;0.712577
0.760;-1.423506;0.707664
0.770;-1.431899;0.703195
0.780;-1.442287;0.699024
0.790;-1.454411;0.694906
0.800;-1.467886;0.690645
0.810;-1.482330;0.686221
0.820;-1.497495;0.681823
0.830;-1.513338;0.677782
0.840;-1.530016;0.674460
0.850;-1.547779;0.672111
0.860;-1.566841;0.670785
0.870;-1.587267;0.670303
0.880;-1.608911;0.670309
0.890;-1.631417;0.670395
0.900;-1.654259;0.670211
0.910;-1.676832;0.669546
0.920;-1.698545;0.668339
0.930;-1.718892;0.666651
0.940;-1.737509;0.664599
0.950;-1.754217;0.662301
0.960;-1.769059;0.659874
0.970;-1.782310;0.657469
0.980;-1.794396;0.655314
0.990;-1.805775;0.653723
1.000;-1.816796;0.653060
1.010;-1.827626;0.653661
1.020;-1.838252;0.655724
1.030;-1.848558;0.659211
1.040;-1.858433;0.663819
1.050;-1.867864;0.669055
1.060;-1.876978;0.674387
1.070;-1.886012;0.679391
1.080;-1.895234;0.683836
1.090;-1.904834;0.687652
1.100;-1.914847;0.690851
1.110;-1.925131;0.693446
1.120;-1.935398;0.695423
1.130;-1.945287;0.696778
1.140;-1.954452;0.697552
1.150;-1.962651;0.697832
1.160;-1.969833;0.697693
1.170;-1.976193;0.697109
1.180;-1.982152;0.695908
1.190;-1.988234;0.693798
1.200;-1.994885;0.690470
1.210;-2.002275;0.685722
1.220;-2.010192;0.679562
1.230;-2.018076;0.672227
1.240;-2.025199;0.664109
1.250;-2.030909;0.655616
1.260;-2.034823;0.647030
1.270;-2.036914;0.638423
1.280;-2.037479;0.629683
1.290;-2.037057;0.620580
1.300;-2.036314;0.610866
1.310;-2.035917;0.600361
1.320;-2.036448;0.589028
1.330;-2.038337;0.577034
1.340;-2.041828;0.564759
1.350;-2.046948;0.552727
1.360;-2.053473;0.541464
1.370;-2.060896;0.531296
1.380;-2.068444;0.522190
1.390;-2.075175;0.513716
1.400;-2.080151;0.505175
1.410;-2.082676;0.495863
1.420;-2.082499;0.485375
1.430;-2.079920;0.473800
1.440;-2.075746;0.461706
1.450;-2.071124;0.449915
1.460;-2.067303;0.439147
1.470;-2.065402;0.429712
1.480;-2.066233;0.421403
1.490;-2.070179;0.413648
1.500;-2.077163;0.405783
1.510;-2.086686;0.397309
1.520;-2.097956;0.388012
1.530;-2.110068;0.377959
1.540;-2.122210;0.367413
1.550;-2.133821;0.356728
1.560;-2.144664;0.346255
1.570;-2.154796;0.336275
1.580;-2.164446;0.326945
1.590;-2.173875;0.318275
1.600;-2.183278;0.310111
1.610;-2.192760;0.302155
1.620;-2.202369;0.294046
1.630;-2.212158;0.285501
1.640;-2.222246;0.276447
1.650;-2.232850;0.267085
1.660;-2.244286;0.257836
1.670;-2.256914;0.249190
1.680;-2.271034;0.241506
1.690;-2.286782;0.234892
1.700;-2.304044;0.229194
1.710;-2.322431;0.224116
1.720;-2.341355;0.219377
1.730;-2.360174;0.214821
1.740;-2.378375;0.210429
1.750;-2.395709;0.206241
1.760;-2.412209;0.202247
1.770;-2.428091;0.198311
1.780;-2.443577;0.194177
1.790;-2.458733;0.189560
1.800;-2.473409;0.184280
1.810;-2.487296;0.178374
1.820;-2.500053;0.172137
1.830;-2.511400;0.166049
1.840;-2.521145;0.160644
1.850;-2.529150;0.156337
1.860;-2.535324;0.153287
1.870;-2.539669;0.151364
1.880;-2.542356;0.150242
1.890;-2.543764;0.149574
1.900;-2.544441;0.149143
1.910;-2.544991;0.148878
1.920;-2.545954;0.148751
1.930;-2.547713;0.148650
1.940;-2.550450;0.148335
1.950;-2.554154;0.147506
1.960;-2.558678;0.145939
1.970;-2.563817;0.143597
1.980;-2.569372;0.140660
1.990;-2.575178;0.137433
2.000;-2.581085;0.134210
2.010;-2.586930;0.131164
2.020;-2.592497;0.128327
2.030;-2.597485;0.125644
2.040;-2.601502;0.123033
2.050;-2.604081;0.120420
2.060;-2.604742;0.117733
2.070;-2.603085;0.114888
2.080;-2.598918;0.111787
2.090;-2.592396;0.108346
2.100;-2.584092;0.104540
2.110;-2.574950;0.100424
2.120;-2.566102;0.096143
2.130;-2.558588;0.091887
2.140;-2.553078;0.087808
2.150;-2.549686;0.083928
2.160;-2.547968;0.080107
2.170;-2.547089;0.076098
2.180;-2.546081;0.071650
2.190;-2.544079;0.066604
2.200;-2.540461;0.060933
2.210;-2.534892;0.054733
2.220;-2.527304;0.048169
2.230;-2.517873;0.041408
2.240;-2.506978;0.034557
2.250;-2.495127;0.027668
2.260;-2.482846;0.020810
2.270;-2.470550;0.014174
2.280;-2.458425;0.008115
2.290;-2.446396;0.003084
2.300;-2.434220;-0.000521
2.310;-2.421669;-0.002504
2.320;-2.408732;-0.002949
2.330;-2.395701;-0.002206
2.340;-2.383069;-0.000806
2.350;-2.371269;0.000665
2.360;-2.360379;0.001701
2.370;-2.349936;0.002013
2.380;-2.338961;0.001620
2.390;-2.326216;0.000826
2.400;-2.310577;0.000055
2.410;-2.291411;-0.000424
2.420;-2.268826;-0.000725
2.430;-2.243718;-0.001383
2.440;-2.217602;-0.003167
2.450;-2.192278;-0.006740
2.460;-2.169444;-0.012323
2.470;-2.150396;-0.019526
2.480;-2.135878;-0.027414
2.490;-2.126112;-0.034805
2.500;-2.120942;-0.040700
2.510;-2.119981;-0.044664
2.520;-2.122722;-0.047023
2.530;-2.128589;-0.048775
2.540;-2.136950;-0.051228
2.550;-2.147128;-0.055527
2.560;-2.158418;-0.062243
2.570;-2.170123;-0.071191
2.580;-2.181617;-0.081521
2.590;-2.192435;-0.092011
2.600;-2.202345;-0.101455
2.610;-2.211365;-0.108998
2.620;-2.219725;-0.114315
2.630;-2.227757;-0.117569
2.640;-2.235776;-0.119178
2.650;-2.243980;-0.119557
2.660;-2.252401;-0.118943
2.670;-2.260934;-0.117404
2.680;-2.269420;-0.114973
2.690;-2.277742;-0.111816
2.700;-2.285901;-0.108303
2.710;-2.294020;-0.104955
2.720;-2.302301;-0.102297
2.730;-2.310951;-0.100712
2.740;-2.320113;-0.100347
2.750;-2.329834;-0.101104
2.760;-2.340091;-0.102690
2.770;-2.350851;-0.104719
2.780;-2.362135;-0.106818
2.790;-2.374038;-0.108717
2.800;-2.386672;-0.110281
2.810;-2.400086;-0.111465
2.820;-2.414226;-0.112268
2.830;-2.428981;-0.112716
2.840;-2.444293;-0.112908
2.850;-2.460229;-0.113066
2.860;-2.476954;-0.113488
2.870;-2.494593;-0.114437
2.880;-2.513068;-0.116019
2.890;-2.532006;-0.118150
2.900;-2.550798;-0.120615
2.910;-2.568760;-0.123161
2.920;-2.585291;-0.125587
2.930;-2.599963;-0.127777
2.940;-2.612515;-0.129685
2.950;-2.622821;-0.131253
2.960;-2.630876;-0.132335
2.970;-2.636806;-0.132690
2.980;-2.640890;-0.132058
2.990;-2.643549;-0.130287
3.000;-2.645290;-0.127428
3.010;-2.646631;-0.123739
3.020;-2.648047;-0.119619
3.030;-2.649945;-0.115481
3.040;-2.652634;-0.111637
3.050;-2.656261;-0.108243
3.060;-2.660750;-0.105318
3.070;-2.665782;-0.102789
3.080;-2.670825;-0.100521
3.090;-2.675205;-0.098310
3.100;-2.678190;-0.095894
3.110;-2.679083;-0.093016
3.120;-2.677356;-0.089550
3.130;-2.672828;-0.085605
3.140;-2.665810;-0.081553
3.150;-2.657149;-0.077932
3.160;-2.648105;-0.075259
3.170;-2.640087;-0.073828
3.180;-2.634330;-0.073572
3.190;-2.631618;-0.074070
3.200;-2.632142;-0.074689
3.210;-2.635500;-0.074814
3.220;-2.640808;-0.074075
3.230;-2.646899;-0.072477
3.240;-2.652562;-0.070391
3.250;-2.656810;-0.068421
3.260;-2.659087;-0.067199
3.270;-2.659370;-0.067169
3.280;-2.658118;-0.068446
3.290;-2.656142;-0.070779
3.300;-2.654430;-0.073646
3.310;-2.653959;-0.076453
3.320;-2.655460;-0.078743
3.330;-2.659161;-0.080347
3.340;-2.664578;-0.081372
3.350;-2.670470;-0.082062
3.360;-2.675067;-0.082590
3.370;-2.676511;-0.082921
3.380;-2.673391;-0.082837
3.390;-2.665162;-0.082092
3.400;-2.652284;-0.080573
3.410;-2.636027;-0.078354
3.420;-2.618047;-0.075608
3.430;-2.599884;-0.072474
3.440;-2.582593;-0.068985
3.450;-2.566577;-0.065115
3.460;-2.551654;-0.060893
3.470;-2.537278;-0.056473
3.480;-2.522817;-0.052106
3.490;-2.507782;-0.048016
3.500;-2.491981;-0.044275
3.510;-2.475571;-0.040763
3.520;-2.459039;-0.037238
3.530;-2.443123;-0.033483
3.540;-2.428674;-0.029452
3.550;-2.416465;-0.025345
3.560;-2.406987;-0.021583
3.570;-2.400316;-0.018674
3.580;-2.396105;-0.017045
3.590;-2.393706;-0.016895
3.600;-2.392373;-0.018149
3.610;-2.391443;-0.020511
3.620;-2.390465;-0.023587
3.630;-2.389248;-0.027009
3.640;-2.387880;-0.030528
3.650;-2.386703;-0.034042
3.660;-2.386246;-0.037560
3.670;-2.387095;-0.041134
3.680;-2.389739;-0.044800
3.690;-2.394442;-0.048569
3.700;-2.401213;-0.052451
3.710;-2.409883;-0.056470
3.720;-2.420200;-0.060646
3.730;-2.431908;-0.064947
3.740;-2.444770;-0.069251
3.750;-2.458571;-0.073341
3.760;-2.473123;-0.076959
3.770;-2.488283;-0.079860
3.780;-2.503982;-0.081862
3.790;-2.520289;-0.082843
3.800;-2.537475;-0.082739
3.810;-2.556066;-0.081561
3.820;-2.576762;-0.079425
3.830;-2.600217;-0.076545
3.840;-2.626710;-0.073186
3.850;-2.655853;-0.069570
3.860;-2.686461;-0.065807
3.870;-2.716703;-0.061881
3.880;-2.744504;-0.057718
3.890;-2.768075;-0.053306
3.900;-2.786389;-0.048798
3.910;-2.799407;-0.044529
3.920;-2.807998;-0.040913
3.930;-2.813616;-0.038269
3.940;-2.817854;-0.036637
3.950;-2.822043;-0.035669
3.960;-2.826992;-0.034657
3.970;-2.832920;-0.032712
3.980;-2.839570;-0.029065
3.990;-2.846437;-0.023354
4.000;-2.853004;-0.015777
4.010;-2.858913;-0.007014
4.020;-2.864028;0.002033
4.030;-2.868387;0.010545
4.040;-2.872096;0.018018
4.050;-2.875196;0.024355
4.060;-2.877587;0.029835
4.070;-2.879026;0.034996
4.080;-2.879221;0.040438
4.090;-2.877938;0.046598
4.100;-2.875087;0.053575
4.110;-2.870727;0.061083
4.120;-2.865026;0.068589
4.130;-2.858202;0.075565
4.140;-2.850461;0.081723
4.150;-2.841958;0.087120
4.160;-2.832803;0.092086
4.170;-2.823094;0.097050
4.180;-2.812966;0.102377
4.190;-2.802616;0.108272
4.200;-2.792306;0.114767
4.210;-2.782329;0.121734
4.220;-2.772982;0.128909
4.230;-2.764531;0.135954
4.240;-2.757158;0.142547
4.250;-2.750904;0.148476
4.260;-2.745638;0.153677
4.270;-2.741114;0.158187
4.280;-2.737112;0.162061
4.290;-2.733589;0.165295
4.300;-2.730769;0.167802
4.310;-2.729086;0.169428
4.320;-2.729020;0.170003
4.330;-2.730859;0.169396
4.340;-2.734531;0.167569
4.350;-2.739581;0.164602
4.360;-2.745308;0.160699
4.370;-2.751001;0.156163
4.380;-2.756151;0.151319
4.390;-2.760565;0.146420
4.400;-2.764326;0.141566
4.410;-2.767660;0.136688
4.420;-2.770794;0.131610
4.430;-2.773835;0.126175
4.440;-2.776729;0.120385
4.450;-2.779261;0.114446
4.460;-2.781115;0.108683
4.470;-2.781976;0.103379
4.480;-2.781663;0.098637
4.490;-2.780266;0.094366
4.500;-2.778198;0.090373
4.510;-2.776128;0.086479
4.520;-2.774790;0.082567
4.530;-2.774724;0.078554
4.540;-2.776060;0.074349
4.550;-2.778424;0.069833
4.560;-2.781038;0.064911
4.570;-2.782978;0.059578
4.580;-2.783487;0.053962
4.590;-2.782218;0.048292
4.600;-2.779304;0.042818
4.610;-2.775271;0.037702
4.620;-2.770850;0.032958
4.630;-2.766779;0.028440
4.640;-2.763675;0.023919
4.650;-2.761984;0.019213
4.660;-2.761991;0.014294
4.670;-2.763827;0.009318
4.680;-2.767456;0.004537
4.690;-2.772631;0.000161
4.700;-2.778872;-0.003754
4.710;-2.785476;-0.007297
4.720;-2.791606;-0.010611
4.730;-2.796453;-0.013780
4.740;-2.799425;-0.016784
4.750;-2.800275;-0.019551
4.760;-2.799120;-0.022069
4.770;-2.796376;-0.024463
4.780;-2.792668;-0.026979
4.790;-2.788753;-0.029878
4.800;-2.785447;-0.033312
4.810;-2.783511;-0.037239
4.820;-2.783491;-0.041425
4.830;-2.785566;-0.045506
4.840;-2.789478;-0.049084
4.850;-2.794602;-0.051833
4.860;-2.800123;-0.053583
4.870;-2.805255;-0.054334
4.880;-2.809442;-0.054188
4.890;-2.812478;-0.053251
4.900;-2.814497;-0.051563
4.910;-2.815856;-0.049124
4.920;-2.816951;-0.045971
4.930;-2.818072;-0.042247
4.940;-2.819330;-0.038203
4.950;-2.820684;-0.034141
4.960;-2.822024;-0.030323
4.970;-2.823289;-0.026927
4.980;-2.824547;-0.024059
4.990;-2.826003;-0.021773
5.000;-2.827876;-0.020075
5.010;-2.830199;-0.018889
5.020;-2.832652;-0.018061
5.030;-2.834555;-0.017385
5.040;-2.835060;-0.016670
5.050;-2.833454;-0.015762
5.060;-2.829420;-0.014534
5.070;-2.823165;-0.012874
5.080;-2.815388;-0.010703
5.090;-2.807127;-0.008045
5.100;-2.799542;-0.005069
5.110;-2.793654;-0.002065
5.120;-2.790110;0.000647
5.130;-2.789024;0.002836
5.140;-2.789982;0.004423
5.150;-2.792191;0.005475
5.160;-2.794737;0.006143
5.170;-2.796850;0.006598
5.180;-2.798060;0.007003
5.190;-2.798247;0.007509
5.200;-2.797567;0.008250
5.210;-2.796319;0.009297
5.220;-2.794812;0.010595
5.230;-2.793262;0.011918
5.240;-2.791781;0.012881
5.250;-2.790422;0.013059
5.260;-2.789250;0.012160
5.270;-2.788403;0.010185
5.280;-2.788119;0.007496
5.290;-2.788733;0.004726
5.300;-2.790607;0.002583
5.310;-2.794027;0.001593
5.320;-2.799076;0.001928
5.330;-2.805572;0.003348
5.340;-2.813106;0.005306
5.350;-2.821176;0.007139
5.360;-2.829377;0.008279
5.370;-2.837549;0.008402
5.380;-2.845827;0.007503
5.390;-2.854566;0.005845
5.400;-2.864184;0.003828
5.410;-2.874978;0.001831
5.420;-2.886974;0.000096
5.430;-2.899891;-0.001300
5.440;-2.913234;-0.002414
5.450;-2.926494;-0.003374
5.460;-2.939363;-0.004322
5.470;-2.951860;-0.005360
5.480;-2.964308;-0.006527
5.490;-2.977180;-0.007797
5.500;-2.990909;-0.009123
5.510;-3.005748;-0.010502
5.520;-3.021728;-0.012017
5.530;-3.038732;-0.013814
5.540;-3.056609;-0.016022
5.550;-3.075274;-0.018648
5.560;-3.094718;-0.021538
5.570;-3.114930;-0.024439
5.580;-3.135806;-0.027135
5.590;-3.157090;-0.029594
5.600;-3.178420;-0.032024
5.610;-3.199420;-0.034803
5.620;-3.219810;-0.038323
5.630;-3.239459;-0.042829
5.640;-3.258349;-0.048313
5.650;-3.276453;-0.054506
5.660;-3.293571;-0.060944
5.670;-3.309209;-0.067098
5.680;-3.322590;-0.072511
5.690;-3.332843;-0.076918
5.700;-3.339303;-0.080310
5.710;-3.341785;-0.082933
5.720;-3.340699;-0.085255
5.730;-3.336916;-0.087879
5.740;-3.331477;-0.091412
5.750;-3.325265;-0.096292
5.760;-3.318817;-0.102606
5.770;-3.312321;-0.110009
5.780;-3.305767;-0.117814
5.790;-3.299143;-0.125236
5.800;-3.292556;-0.131698
5.810;-3.286218;-0.137044
5.820;-3.280329;-0.141557
5.830;-3.274925;-0.145793
5.840;-3.269780;-0.150330
5.850;-3.264415;-0.155527
5.860;-3.258206;-0.161411
5.870;-3.250541;-0.167703
5.880;-3.240957;-0.173942
5.890;-3.229255;-0.179665
5.900;-3.215534;-0.184544
5.910;-3.200190;-0.188469
5.920;-3.183830;-0.191546
5.930;-3.167147;-0.194037
5.940;-3.150752;-0.196261
5.950;-3.135038;-0.198484
5.960;-3.120128;-0.200833
5.970;-3.105960;-0.203267
5.980;-3.092446;-0.205614
5.990;-3.079618;-0.207656
6.000;-3.067650;-0.209227
6.010;-3.056744;-0.210264
6.020;-3.046938;-0.210779
6.030;-3.037941;-0.210781
6.040;-3.029091;-0.210207
6.050;-3.019460;-0.208909
6.060;-3.008078;-0.206707
6.070;-2.994204;-0.203493
6.080;-2.977544;-0.199317
6.090;-2.958350;-0.194436
6.100;-2.937358;-0.189286
6.110;-2.915637;-0.184408
6.120;-2.894400;-0.180328
6.130;-2.874851;-0.177436
6.140;-2.858072;-0.175885
6.150;-2.844914;-0.175556
6.160;-2.835883;-0.176113
6.170;-2.831003;-0.177126
6.180;-2.829721;-0.178202
6.190;-2.830911;-0.179074
6.200;-2.833039;-0.179605
6.210;-2.834448;-0.179772
6.220;-2.833710;-0.179650
6.230;-2.829932;-0.179393
6.240;-2.822945;-0.179211
6.250;-2.813334;-0.179324
6.260;-2.802288;-0.179943
6.270;-2.791282;-0.181269
6.280;-2.781692;-0.183478
6.290;-2.774439;-0.186685
6.300;-2.769772;-0.190879
6.310;-2.767232;-0.195881
6.320;-2.765780;-0.201356
6.330;-2.764025;-0.206871
6.340;-2.760525;-0.211973
6.350;-2.754102;-0.216269
6.360;-2.744143;-0.219517
6.370;-2.730791;-0.221709
6.380;-2.714955;-0.223113
6.390;-2.698117;-0.224205
6.400;-2.681974;-0.225507
6.410;-2.668006;-0.227409
6.420;-2.657103;-0.230077
6.430;-2.649348;-0.233476
6.440;-2.644052;-0.237474
6.450;-2.639995;-0.241963
6.460;-2.635816;-0.246925
6.470;-2.630394;-0.252427
6.480;-2.623121;-0.258581
6.490;-2.613997;-0.265500
6.500;-2.603536;-0.273279
6.510;-2.592568;-0.281972
6.520;-2.582037;-0.291556
6.530;-2.572841;-0.301891
6.540;-2.565740;-0.312710
6.550;-2.561274;-0.323679
6.560;-2.559671;-0.334518
6.570;-2.560771;-0.345126
6.580;-2.564012;-0.355627
6.590;-2.568537;-0.366310
6.600;-2.573417;-0.377487
6.610;-2.577915;-0.389342
6.620;-2.581673;-0.401839
6.630;-2.584755;-0.414748
6.640;-2.587514;-0.427764
6.650;-2.590366;-0.440669
6.660;-2.593560;-0.453434
6.670;-2.597038;-0.466219
6.680;-2.600450;-0.479268
6.690;-2.603282;-0.492775
6.700;-2.605018;-0.506796
6.710;-2.605237;-0.521228
6.720;-2.603631;-0.535862
6.730;-2.599992;-0.550463
6.740;-2.594219;-0.564858
6.750;-2.586370;-0.578994
6.760;-2.576703;-0.592982
6.770;-2.565658;-0.607064
6.780;-2.553742;-0.621517
6.790;-2.541381;-0.636497
6.800;-2.528814;-0.651909
6.810;-2.516092;-0.667377
6.820;-2.503173;-0.682321
6.830;-2.490057;-0.696102
6.840;-2.476875;-0.708173
6.850;-2.463869;-0.718182
6.860;-2.451293;-0.726010
6.870;-2.439294;-0.731736
6.880;-2.427864;-0.735576
6.890;-2.416877;-0.737816
6.900;-2.406171;-0.738759
6.910;-2.395644;-0.738692
6.920;-2.385290;-0.737856
6.930;-2.375190;-0.736432
6.940;-2.365439;-0.734532
6.950;-2.356056;-0.732212
6.960;-2.346913;-0.729509
6.970;-2.337738;-0.726476
6.980;-2.328200;-0.723209
6.990;-2.318051;-0.719840
7.000;-2.307261;-0.716491
7.010;-2.296082;-0.713197
7.020;-2.284998;-0.709842
7.030;-2.274568;-0.706147
7.040;-2.265219;-0.701722
7.050;-2.257052;-0.696140
7.060;-2.249766;-0.689007
7.070;-2.242722;-0.680018
7.080;-2.235117;-0.669030
7.090;-2.226223;-0.656166
7.100;-2.215595;-0.641890
7.110;-2.203187;-0.626981
7.120;-2.189320;-0.612352
7.130;-2.174547;-0.598779
7.140;-2.159449;-0.586665
7.150;-2.144484;-0.575932
7.160;-2.129930;-0.566089
7.170;-2.115917;-0.556429
7.180;-2.102503;-0.546297
7.190;-2.089726;-0.535322
7.200;-2.077594;-0.523554
7.210;-2.066033;-0.511443
7.220;-2.054849;-0.499702
7.230;-2.043748;-0.489082
7.240;-2.032462;-0.480158
7.250;-2.020893;-0.473175
7.260;-2.009197;-0.468028
7.270;-1.997722;-0.464398
7.280;-1.986829;-0.461962
7.290;-1.976723;-0.460570
7.300;-1.967370;-0.460257
7.310;-1.958549;-0.461108
7.320;-1.949971;-0.463094
7.330;-1.941404;-0.465979
7.340;-1.932747;-0.469376
7.350;-1.924048;-0.472899
7.360;-1.915465;-0.476348
7.370;-1.907190;-0.479843
7.380;-1.899337;-0.483841
7.390;-1.891851;-0.488992
7.400;-1.884442;-0.495861
7.410;-1.876622;-0.504647
7.420;-1.867813;-0.515062
7.430;-1.857497;-0.526437
7.440;-1.845346;-0.538009
7.450;-1.831299;-0.549239
7.460;-1.815578;-0.560012
7.470;-1.798641;-0.570632
7.480;-1.781110;-0.581616
7.490;-1.763666;-0.593390
7.500;-1.746946;-0.606044
7.510;-1.731462;-0.619298
7.520;-1.717538;-0.632698
7.530;-1.705279;-0.645954
7.540;-1.694551;-0.659206
7.550;-1.684988;-0.673053
7.560;-1.676016;-0.688284
7.570;-1.666943;-0.705453
7.580;-1.657106;-0.724545
7.590;-1.646030;-0.744938
7.600;-1.633534;-0.765665
7.610;-1.619726;-0.785824
7.620;-1.604912;-0.804886
7.630;-1.589470;-0.822770
7.640;-1.573734;-0.839663
7.650;-1.557930;-0.855710
7.660;-1.542186;-0.870764
7.670;-1.526604;-0.884334
7.680;-1.511322;-0.895744
7.690;-1.496550;-0.904445
7.700;-1.482537;-0.910312
7.710;-1.469519;-0.913804
7.720;-1.457646;-0.915925
7.730;-1.446919;-0.917963
7.740;-1.437134;-0.921104
7.750;-1.427870;-0.926068
7.760;-1.418537;-0.932912
7.770;-1.408490;-0.941065
7.780;-1.397188;-0.949567
7.790;-1.384341;-0.957375
7.800;-1.369989;-0.963632
7.810;-1.354510;-0.967813
