Time[s];COPx[cm];COPy[cm]
0.010;-0.166804;-0.668102
0.020;-0.173141;-0.667469
0.030;-0.178753;-0.666450
0.040;-0.182995;-0.664925
0.050;-0.185410;-0.663134
0.060;-0.185802;-0.661617
0.070;-0.184280;-0.661004
0.080;-0.181277;-0.661786
0.090;-0.177513;-0.664144
0.100;-0.173881;-0.667876
0.110;-0.171273;-0.672445
0.120;-0.170373;-0.677117
0.130;-0.171496;-0.681147
0.140;-0.174504;-0.683977
0.150;-0.178845;-0.685395
0.160;-0.183700;-0.685620
0.170;-0.188231;-0.685284
0.180;-0.191816;-0.685274
0.190;-0.194210;-0.686462
0.200;-0.195566;-0.689381
0.210;-0.196329;-0.693961
0.220;-0.197056;-0.699466
0.230;-0.198255;-0.704707
0.240;-0.200307;-0.708485
0.250;-0.203472;-0.710072
0.260;-0.207928;-0.709503
0.270;-0.213752;-0.707540
0.280;-0.220842;-0.705323
0.290;-0.228824;-0.703894
0.300;-0.237043;-0.703790
0.310;-0.244673;-0.704916
0.320;-0.250917;-0.706699
0.330;-0.255216;-0.708419
0.340;-0.257390;-0.709527
0.350;-0.257637;-0.709830
0.360;-0.256424;-0.709522
0.370;-0.254301;-0.709082
0.380;-0.251739;-0.709113
0.390;-0.249019;-0.710144
0.400;-0.246238;-0.712458
0.410;-0.243372;-0.715994
0.420;-0.240388;-0.720347
0.430;-0.237316;-0.724877
0.440;-0.234272;-0.728895
0.450;-0.231435;-0.731858
0.460;-0.228967;-0.733526
0.470;-0.226928;-0.734011
0.480;-0.225213;-0.733709
0.490;-0.223535;-0.733128
0.500;-0.221489;-0.732710
0.510;-0.218642;-0.732721
0.520;-0.214658;-0.733252
0.530;-0.209397;-0.734305
0.540;-0.202980;-0.735875
0.550;-0.195783;-0.737978
0.560;-0.188331;-0.740607
0.570;-0.181139;-0.743661
0.580;-0.174570;-0.746894
0.590;-0.168765;-0.749940
0.600;-0.163646;-0.752390
0.610;-0.158958;-0.753881
0.620;-0.154323;-0.754156
0.630;-0.149319;-0.753086
0.640;-0.143589;-0.750686
0.650;-0.136985;-0.747130
0.660;-0.129679;-0.742754
0.670;-0.122168;-0.738000
0.680;-0.115136;-0.733287
0.690;-0.109214;-0.728883
0.700;-0.104732;-0.724837
0.710;-0.101596;-0.721043
0.720;-0.099361;-0.717366
0.730;-0.097489;-0.713759
0.740;-0.095648;-0.710317
0.750;-0.093904;-0.707232
0.760;-0.092689;-0.704674
0.770;-0.092596;-0.702637
0.780;-0.094105;-0.700854
0.790;-0.097378;-0.698859
0.800;-0.102200;-0.696177
0.810;-0.108069;-0.692522
0.820;-0.114389;-0.687891
0.830;-0.120686;-0.682551
0.840;-0.126739;-0.676957
0.850;-0.132611;-0.671654
0.860;-0.138592;-0.667141
0.870;-0.145114;-0.663708
0.880;-0.152653;-0.661268
0.890;-0.161609;-0.659293
0.900;-0.172157;-0.656934
0.910;-0.184128;-0.653332
0.920;-0.197012;-0.647965
0.930;-0.210097;-0.640864
0.940;-0.222706;-0.632540
0.950;-0.234383;-0.623717
0.960;-0.244945;-0.615008
0.970;-0.254380;-0.606749
0.980;-0.262696;-0.599032
0.990;-0.269837;-0.591844
1.000;-0.275757;-0.585187
1.010;-0.280577;-0.579090
1.020;-0.284686;-0.573564
1.030;-0.288669;-0.568602
1.040;-0.293097;-0.564224
1.050;-0.298306;-0.560527
1.060;-0.304279;-0.557643
1.070;-0.310687;-0.555604
1.080;-0.317051;-0.554209
1.090;-0.322947;-0.552997
1.100;-0.328166;-0.551384
1.110;-0.332777;-0.548923
1.120;-0.337087;-0.545545
1.130;-0.341521;-0.541630
1.140;-0.346470;-0.537855
1.150;-0.352134;-0.534892
1.160;-0.358449;-0.533143
1.170;-0.365113;-0.532628
1.180;-0.371686;-0.533051
1.190;-0.377690;-0.533969
1.200;-0.382670;-0.534967
1.210;-0.386215;-0.535780
1.220;-0.387994;-0.536340
1.230;-0.387815;-0.536729
1.240;-0.385676;-0.537084
1.250;-0.381773;-0.537500
1.260;-0.376452;-0.537998
1.270;-0.370133;-0.538566
1.280;-0.363236;-0.539228
1.290;-0.356136;-0.540106
1.300;-0.349143;-0.541451
1.310;-0.342545;-0.543608
1.320;-0.336676;-0.546909
1.330;-0.331996;-0.551509
1.340;-0.329118;-0.557232
1.350;-0.328701;-0.563550
1.360;-0.331232;-0.569711
1.370;-0.336765;-0.575016
1.380;-0.344795;-0.579080
1.390;-0.354343;-0.581977
1.400;-0.364252;-0.584187
1.410;-0.373527;-0.586385
1.420;-0.381596;-0.589191
1.430;-0.388384;-0.592994
1.440;-0.394241;-0.597900
1.450;-0.399770;-0.603752
1.460;-0.405643;-0.610187
1.470;-0.412458;-0.616695
1.480;-0.420651;-0.622737
1.490;-0.430468;-0.627887
1.500;-0.441956;-0.631980
1.510;-0.454965;-0.635155
1.520;-0.469166;-0.637778
1.530;-0.484128;-0.640266
1.540;-0.499438;-0.642907
1.550;-0.514820;-0.645769
1.560;-0.530187;-0.648734
1.570;-0.545582;-0.651643
1.580;-0.561038;-0.654444
1.590;-0.576458;-0.657272
1.600;-0.591586;-0.660411
1.610;-0.606110;-0.664170
1.620;-0.619799;-0.668751
1.630;-0.632591;-0.674219
1.640;-0.644568;-0.680551
1.650;-0.655845;-0.687713
1.660;-0.666459;-0.695675
1.670;-0.676321;-0.704367
1.680;-0.685257;-0.713610
1.690;-0.693109;-0.723090
1.700;-0.699860;-0.732381
1.710;-0.705730;-0.741001
1.720;-0.711178;-0.748498
1.730;-0.716821;-0.754553
1.740;-0.723268;-0.759070
1.750;-0.730933;-0.762226
1.760;-0.739906;-0.764453
1.770;-0.749965;-0.766350
1.780;-0.760715;-0.768571
1.790;-0.771777;-0.771692
1.800;-0.782938;-0.776093
1.810;-0.794174;-0.781859
1.820;-0.805575;-0.788750
1.830;-0.817225;-0.796245
1.840;-0.829082;-0.803672
1.850;-0.840910;-0.810359
1.860;-0.852302;-0.815773
1.870;-0.862815;-0.819619
1.880;-0.872149;-0.821901
1.890;-0.880261;-0.822897
1.900;-0.887301;-0.823047
1.910;-0.893420;-0.822790
1.920;-0.898557;-0.822406
1.930;-0.902373;-0.821907
1.940;-0.904344;-0.821008
1.950;-0.903951;-0.819221
1.960;-0.900822;-0.816051
1.970;-0.894728;-0.811239
1.980;-0.885485;-0.804922
1.990;-0.872862;-0.797617
2.000;-0.856620;-0.790052
2.010;-0.836680;-0.782933
2.020;-0.813281;-0.776723
2.030;-0.787015;-0.771521
2.040;-0.758693;-0.767043
2.050;-0.729107;-0.762730
2.060;-0.698840;-0.757955
2.070;-0.668203;-0.752266
2.080;-0.637317;-0.745601
2.090;-0.606263;-0.738354
2.100;-0.575231;-0.731247
2.110;-0.544611;-0.725022
2.120;-0.514997;-0.720131
2.130;-0.487087;-0.716568
2.140;-0.461515;-0.713929
2.150;-0.438674;-0.711623
2.160;-0.418644;-0.709103
2.170;-0.401260;-0.706042
2.180;-0.386318;-0.702415
2.190;-0.373768;-0.698484
2.200;-0.363806;-0.694685
2.210;-0.356783;-0.691463
2.220;-0.353015;-0.689116
2.230;-0.352585;-0.687719
2.240;-0.355264;-0.687125
2.250;-0.360565;-0.687044
2.260;-0.367885;-0.687140
2.270;-0.376636;-0.687130
2.280;-0.386311;-0.686843
2.290;-0.396463;-0.686239
2.300;-0.406673;-0.685375
2.310;-0.416552;-0.684349
2.320;-0.425800;-0.683261
2.330;-0.434303;-0.682187
2.340;-0.442198;-0.681173
2.350;-0.449856;-0.680240
2.360;-0.457785;-0.679379
2.370;-0.466453;-0.678565
2.380;-0.476109;-0.677792
2.390;-0.486607;-0.677103
2.400;-0.497354;-0.676571
2.410;-0.507416;-0.676230
2.420;-0.515800;-0.675999
2.430;-0.521804;-0.675662
2.440;-0.525260;-0.674938
2.450;-0.526548;-0.673618
2.460;-0.526392;-0.671702
2.470;-0.525540;-0.669456
2.480;-0.524464;-0.667326
2.490;-0.523198;-0.665745
2.500;-0.521350;-0.664935
2.510;-0.518278;-0.664807
2.520;-0.513350;-0.664997
2.530;-0.506208;-0.665003
2.540;-0.496914;-0.664335
2.550;-0.485933;-0.662632
2.560;-0.473958;-0.659699
2.570;-0.461660;-0.655511
2.580;-0.449511;-0.650208
2.590;-0.437736;-0.644105
2.600;-0.426402;-0.637673
2.610;-0.415562;-0.631451
2.620;-0.405388;-0.625884
2.630;-0.396222;-0.621171
2.640;-0.388527;-0.617201
2.650;-0.382749;-0.613625
2.660;-0.379194;-0.610024
2.670;-0.377956;-0.606087
2.680;-0.378899;-0.601736
2.690;-0.381638;-0.597157
2.700;-0.385513;-0.592748
2.710;-0.389604;-0.588982
2.720;-0.392837;-0.586229
2.730;-0.394224;-0.584599
2.740;-0.393159;-0.583851
2.750;-0.389618;-0.583407
2.760;-0.384128;-0.582474
2.770;-0.377515;-0.580264
2.780;-0.370567;-0.576250
2.790;-0.363807;-0.570392
2.800;-0.357431;-0.563185
2.810;-0.351383;-0.555504
2.820;-0.345476;-0.548305
2.830;-0.339509;-0.542318
2.840;-0.333351;-0.537868
2.850;-0.326984;-0.534886
2.860;-0.320502;-0.533046
2.870;-0.314051;-0.531930
2.880;-0.307759;-0.531123
2.890;-0.301692;-0.530258
2.900;-0.295879;-0.529073
2.910;-0.290422;-0.527496
2.920;-0.285598;-0.525724
2.930;-0.281895;-0.524190
2.940;-0.279918;-0.523398
2.950;-0.280217;-0.523676
2.960;-0.283107;-0.524994
2.970;-0.288578;-0.526944
2.980;-0.296314;-0.528917
2.990;-0.305805;-0.530373
3.000;-0.316493;-0.531060
3.010;-0.327896;-0.531083
3.020;-0.339689;-0.530788
3.030;-0.351735;-0.530549
3.040;-0.364054;-0.530575
3.050;-0.376736;-0.530835
3.060;-0.389830;-0.531125
3.070;-0.403255;-0.531233
3.080;-0.416789;-0.531077
3.090;-0.430115;-0.530753
3.100;-0.442892;-0.530445
3.110;-0.454785;-0.530291
3.120;-0.465482;-0.530267
3.130;-0.474732;-0.530159
3.140;-0.482413;-0.529623
3.150;-0.488567;-0.528295
3.160;-0.493329;-0.525915
3.170;-0.496780;-0.522409
3.180;-0.498842;-0.517894
3.190;-0.499288;-0.512608
3.200;-0.497877;-0.506800
3.210;-0.494514;-0.500689
3.220;-0.489363;-0.494511
3.230;-0.482858;-0.488629
3.240;-0.475602;-0.483563
3.250;-0.468179;-0.479870
3.260;-0.460951;-0.477917
3.270;-0.453939;-0.477677
3.280;-0.446859;-0.478688
3.290;-0.439336;-0.480211
3.300;-0.431189;-0.481518
3.310;-0.422608;-0.482145
3.320;-0.414112;-0.481987
3.330;-0.406291;-0.481217
3.340;-0.399515;-0.480106
3.350;-0.393782;-0.478876
3.360;-0.388784;-0.477643
3.370;-0.384154;-0.476490
3.380;-0.379742;-0.475570
3.390;-0.375770;-0.475173
3.400;-0.372796;-0.475665
3.410;-0.371495;-0.477317
3.420;-0.372375;-0.480111
3.430;-0.375537;-0.483685
3.440;-0.380573;-0.487458
3.450;-0.386658;-0.490878
3.460;-0.392777;-0.493652
3.470;-0.398043;-0.495841
3.480;-0.401976;-0.497787
3.490;-0.404679;-0.499939
3.500;-0.406820;-0.502695
3.510;-0.409429;-0.506315
3.520;-0.413548;-0.510913
3.530;-0.419901;-0.516452
3.540;-0.428665;-0.522737
3.550;-0.439447;-0.529444
3.560;-0.451417;-0.536205
3.570;-0.463525;-0.542744
3.580;-0.474732;-0.548996
3.590;-0.484203;-0.555159
3.600;-0.491444;-0.561639
3.610;-0.496365;-0.568907
3.620;-0.499246;-0.577318
3.630;-0.500627;-0.586962
3.640;-0.501163;-0.597617
3.650;-0.501501;-0.608793
3.660;-0.502193;-0.619839
3.670;-0.503661;-0.630090
3.680;-0.506205;-0.639020
3.690;-0.510065;-0.646428
3.700;-0.515473;-0.652576
3.710;-0.522652;-0.658215
3.720;-0.531729;-0.664406
3.730;-0.542615;-0.672161
3.740;-0.554971;-0.682068
3.750;-0.568297;-0.694074
3.760;-0.582101;-0.707542
3.770;-0.596038;-0.721529
3.780;-0.609949;-0.735132
3.790;-0.623806;-0.747760
3.800;-0.637605;-0.759209
3.810;-0.651249;-0.769593
3.820;-0.664473;-0.779185
3.830;-0.676815;-0.788270
3.840;-0.687679;-0.797076
3.850;-0.696445;-0.805749
3.860;-0.702588;-0.814341
3.870;-0.705788;-0.822759
3.880;-0.705976;-0.830726
3.890;-0.703339;-0.837815
3.900;-0.698283;-0.843588
3.910;-0.691356;-0.847789
3.920;-0.683182;-0.850513
3.930;-0.674397;-0.852266
3.940;-0.665574;-0.853883
3.950;-0.657126;-0.856345
3.960;-0.649215;-0.860516
3.970;-0.641700;-0.866872
3.980;-0.634191;-0.875314
3.990;-0.626199;-0.885131
4.000;-0.617324;-0.895162
4.010;-0.607411;-0.904151
4.020;-0.596596;-0.911142
4.030;-0.585227;-0.915771
4.040;-0.573716;-0.918280
4.050;-0.562389;-0.919316
4.060;-0.551410;-0.919621
4.070;-0.540786;-0.919793
4.080;-0.530448;-0.920137
4.090;-0.520312;-0.920647
4.100;-0.510313;-0.921058
4.110;-0.500407;-0.920963
4.120;-0.490591;-0.919961
4.130;-0.480927;-0.917802
4.140;-0.471532;-0.914512
4.150;-0.462494;-0.910459
4.160;-0.453776;-0.906340
4.170;-0.445154;-0.903061
4.180;-0.436225;-0.901529
4.190;-0.426494;-0.902409
4.200;-0.415534;-0.905932
4.210;-0.403151;-0.911826
4.220;-0.389522;-0.919396
4.230;-0.375228;-0.927754
4.240;-0.361176;-0.936084
4.250;-0.348428;-0.943840
4.260;-0.337982;-0.950790
4.270;-0.330574;-0.956924
4.280;-0.326547;-0.962303
4.290;-0.325812;-0.966934
4.300;-0.327886;-0.970718
4.310;-0.332006;-0.973473
4.320;-0.337274;-0.975012
4.330;-0.342799;-0.975227
4.340;-0.347830;-0.974131
4.350;-0.351875;-0.971856
4.360;-0.354782;-0.968618
4.370;-0.356733;-0.964674
4.380;-0.358108;-0.960262
4.390;-0.359291;-0.955544
4.400;-0.360502;-0.950538
4.410;-0.361753;-0.945073
4.420;-0.362920;-0.938826
4.430;-0.363870;-0.931433
4.440;-0.364555;-0.922644
4.450;-0.365008;-0.912434
4.460;-0.365295;-0.901014
4.470;-0.365489;-0.888774
4.480;-0.365718;-0.876188
4.490;-0.366245;-0.863723
4.500;-0.367495;-0.851755
4.510;-0.369985;-0.840492
4.520;-0.374177;-0.829921
4.530;-0.380338;-0.819796
4.540;-0.388457;-0.809680
4.550;-0.398263;-0.799040
4.560;-0.409318;-0.787397
4.570;-0.421098;-0.774477
4.580;-0.433043;-0.760302
4.590;-0.444561;-0.745200
4.600;-0.455075;-0.729723
4.610;-0.464153;-0.714512
4.620;-0.471689;-0.700166
4.630;-0.478037;-0.687139
4.640;-0.483966;-0.675696
4.650;-0.490416;-0.665902
4.660;-0.498142;-0.657646
4.670;-0.507419;-0.650650
4.680;-0.517918;-0.644474
4.690;-0.528805;-0.638542
4.700;-0.539006;-0.632208
4.710;-0.547543;-0.624856
4.720;-0.553826;-0.616027
4.730;-0.557798;-0.605538
4.740;-0.559901;-0.593565
4.750;-0.560885;-0.580625
4.760;-0.561550;-0.567458
4.770;-0.562515;-0.554843
4.780;-0.564115;-0.543426
4.790;-0.566432;-0.533596
4.800;-0.569410;-0.525410
4.810;-0.572976;-0.518568
4.820;-0.577057;-0.512455
4.830;-0.581530;-0.506278
4.840;-0.586141;-0.499289
4.850;-0.590488;-0.491032
4.860;-0.594109;-0.481532
4.870;-0.596607;-0.471348
4.880;-0.597776;-0.461459
4.890;-0.597630;-0.453001
4.900;-0.596314;-0.446940
4.910;-0.593948;-0.443770
4.920;-0.590471;-0.443355
4.930;-0.585599;-0.444977
4.940;-0.578913;-0.447595
4.950;-0.570025;-0.450208
4.960;-0.558755;-0.452159
4.970;-0.545258;-0.453267
4.980;-0.530095;-0.453782
4.990;-0.514210;-0.454228
5.000;-0.498805;-0.455197
5.010;-0.485100;-0.457154
5.020;-0.474058;-0.460306
5.030;-0.466153;-0.464580
5.040;-0.461272;-0.469740
5.050;-0.458749;-0.475567
5.060;-0.457544;-0.481995
5.070;-0.456501;-0.489147
5.080;-0.454639;-0.497233
5.090;-0.451368;-0.506381
5.100;-0.446569;-0.516473
5.110;-0.440515;-0.527103
5.120;-0.433711;-0.537707
5.130;-0.426734;-0.547807
5.140;-0.420153;-0.557240
5.150;-0.414494;-0.566182
5.160;-0.410212;-0.574972
5.170;-0.407631;-0.583864
5.180;-0.406849;-0.592894
5.190;-0.407666;-0.601932
5.200;-0.409609;-0.610826
5.210;-0.412049;-0.619520
5.220;-0.414391;-0.628070
5.230;-0.416235;-0.636598
5.240;-0.417434;-0.645237
5.250;-0.418068;-0.654112
5.260;-0.418350;-0.663365
5.270;-0.418509;-0.673159
5.280;-0.418692;-0.683650
5.290;-0.418908;-0.694928
5.300;-0.419035;-0.706952
5.310;-0.418868;-0.719495
5.320;-0.418194;-0.732122
5.330;-0.416849;-0.744228
5.340;-0.414765;-0.755169
5.350;-0.411998;-0.764433
5.360;-0.408709;-0.771793
5.370;-0.405084;-0.777362
5.380;-0.401225;-0.781521
5.390;-0.397072;-0.784765
5.400;-0.392451;-0.787559
5.410;-0.387217;-0.790246
5.420;-0.381403;-0.793022
5.430;-0.375299;-0.795916
5.440;-0.369395;-0.798779
5.450;-0.364232;-0.801301
5.460;-0.360190;-0.803096
5.470;-0.357322;-0.803828
5.480;-0.355294;-0.803340
5.490;-0.353472;-0.801733
5.500;-0.351141;-0.799380
5.510;-0.347759;-0.796885
5.520;-0.343138;-0.794943
5.530;-0.337491;-0.794143
5.540;-0.331359;-0.794762
5.550;-0.325462;-0.796653
5.560;-0.320524;-0.799303
5.570;-0.317090;-0.802028
5.580;-0.315359;-0.804227
5.590;-0.315090;-0.805565
5.600;-0.315624;-0.806022
5.610;-0.316068;-0.805810
5.620;-0.315585;-0.805251
5.630;-0.313688;-0.804697
5.640;-0.310394;-0.804492
5.650;-0.306182;-0.804936
5.660;-0.301771;-0.806214
5.670;-0.297831;-0.808314
5.680;-0.294724;-0.810978
5.690;-0.292385;-0.813752
5.700;-0.290381;-0.816129
5.710;-0.288120;-0.817756
5.720;-0.285120;-0.818586
5.730;-0.281243;-0.818879
5.740;-0.276787;-0.819044
5.750;-0.272416;-0.819414
5.760;-0.268963;-0.820113
5.770;-0.267164;-0.821065
5.780;-0.267425;-0.822092
5.790;-0.269698;-0.823031
5.800;-0.273513;-0.823791
5.810;-0.278135;-0.824351
5.820;-0.282766;-0.824718
5.830;-0.286706;-0.824881
5.840;-0.289426;-0.824792
5.850;-0.290572;-0.824380
5.860;-0.289957;-0.823562
5.870;-0.287580;-0.822260
5.880;-0.283676;-0.820422
5.890;-0.278761;-0.818065
5.900;-0.273610;-0.815306
5.910;-0.269177;-0.812337
5.920;-0.266420;-0.809342
5.930;-0.266093;-0.806401
5.940;-0.268537;-0.803444
5.950;-0.273560;-0.800286
5.960;-0.280479;-0.796735
5.970;-0.288298;-0.792720
5.980;-0.295982;-0.788399
5.990;-0.302740;-0.784167
6.000;-0.308220;-0.780546
6.010;-0.312531;-0.777987
6.020;-0.316095;-0.776674
6.030;-0.319421;-0.776440
6.040;-0.322945;-0.776822
6.050;-0.326990;-0.777233
6.060;-0.331803;-0.777155
6.070;-0.337589;-0.776291
6.080;-0.344487;-0.774658
6.090;-0.352484;-0.772598
6.100;-0.361352;-0.770692
6.110;-0.370644;-0.769581
6.120;-0.379768;-0.769747
6.130;-0.388119;-0.771337
6.140;-0.395209;-0.774121
6.150;-0.400781;-0.777550
6.160;-0.404871;-0.780893
6.170;-0.407789;-0.783386
6.180;-0.410047;-0.784399
6.190;-0.412243;-0.783598
6.200;-0.414923;-0.781077
6.210;-0.418419;-0.777376
6.220;-0.422696;-0.773366
6.230;-0.427273;-0.770024
6.240;-0.431290;-0.768149
6.250;-0.433733;-0.768108
6.260;-0.433780;-0.769665
6.270;-0.431131;-0.771976
6.280;-0.426190;-0.773814
6.290;-0.419985;-0.773997
6.300;-0.413851;-0.771866
6.310;-0.408992;-0.767579
6.320;-0.406109;-0.762025
6.330;-0.405222;-0.756417
6.340;-0.405745;-0.751775
6.350;-0.406747;-0.748591
6.360;-0.407304;-0.746806
6.370;-0.406830;-0.746020
6.380;-0.405269;-0.745773
6.390;-0.403072;-0.745704
6.400;-0.400953;-0.745558
6.410;-0.399547;-0.745069
6.420;-0.399168;-0.743849
6.430;-0.399764;-0.741426
6.440;-0.401041;-0.737444
6.450;-0.402659;-0.731903
6.460;-0.404355;-0.725275
6.470;-0.405980;-0.718398
6.480;-0.407454;-0.712188
6.490;-0.408730;-0.707321
6.500;-0.409780;-0.704031
6.510;-0.410633;-0.702103
6.520;-0.411424;-0.701031
6.530;-0.412425;-0.700225
6.540;-0.414035;-0.699175
6.550;-0.416705;-0.697527
6.560;-0.420788;-0.695067
6.570;-0.426361;-0.691653
6.580;-0.433099;-0.687157
6.590;-0.440283;-0.681445
6.600;-0.446961;-0.674408
6.610;-0.452213;-0.666052
6.620;-0.455440;-0.656593
6.630;-0.456552;-0.646467
6.640;-0.456002;-0.636239
6.650;-0.454622;-0.626437
6.660;-0.453354;-0.617402
6.670;-0.452974;-0.609240
6.680;-0.453920;-0.601869
6.690;-0.456267;-0.595107
6.700;-0.459824;-0.588765
6.710;-0.464261;-0.582672
6.720;-0.469233;-0.576687
6.730;-0.474458;-0.570684
6.740;-0.479752;-0.564566
6.750;-0.485040;-0.558273
6.760;-0.490333;-0.551815
6.770;-0.495707;-0.545302
6.780;-0.501257;-0.538974
6.790;-0.507052;-0.533184
6.800;-0.513075;-0.528331
6.810;-0.519202;-0.524746
6.820;-0.525209;-0.522589
6.830;-0.530827;-0.521833
6.840;-0.535807;-0.522327
6.850;-0.539952;-0.523883
6.860;-0.543107;-0.526308
6.870;-0.545118;-0.529368
6.880;-0.545800;-0.532746
6.890;-0.544948;-0.536071
6.900;-0.542415;-0.539007
6.910;-0.538228;-0.541367
6.920;-0.532662;-0.543154
6.930;-0.526216;-0.544507
6.940;-0.519457;-0.545587
6.950;-0.512827;-0.546504
6.960;-0.506525;-0.547312
6.970;-0.500529;-0.548058
6.980;-0.494723;-0.548799
6.990;-0.489029;-0.549566
7.000;-0.483476;-0.550301
7.010;-0.478168;-0.550824
7.020;-0.473190;-0.550863
7.030;-0.468513;-0.550142
7.040;-0.463965;-0.548478
7.050;-0.459290;-0.545852
7.060;-0.454264;-0.542448
7.070;-0.448815;-0.538648
7.080;-0.443056;-0.534957
7.090;-0.437231;-0.531854
7.100;-0.431595;-0.529613
7.110;-0.426311;-0.528199
7.120;-0.421437;-0.527322
7.130;-0.416984;-0.526636
7.140;-0.413007;-0.525933
7.150;-0.409654;-0.525214
7.160;-0.407116;-0.524606
7.170;-0.405503;-0.524217
7.180;-0.404698;-0.524055
7.190;-0.404272;-0.524031
7.200;-0.403547;-0.524025
7.210;-0.401793;-0.523950
7.220;-0.398523;-0.523795
7.230;-0.393743;-0.523658
7.240;-0.388046;-0.523764
7.250;-0.382500;-0.524465
7.260;-0.378343;-0.526170
7.270;-0.376612;-0.529202
7.280;-0.377825;-0.533630
7.290;-0.381841;-0.539159
7.300;-0.387944;-0.545159
7.310;-0.395128;-0.550823
7.320;-0.402440;-0.555416
7.330;-0.409240;-0.558506
7.340;-0.415276;-0.560087
7.350;-0.420592;-0.560550
7.360;-0.425367;-0.560515
7.370;-0.429784;-0.560609
7.380;-0.433966;-0.561275
7.390;-0.437994;-0.562662
7.400;-0.441989;-0.564621
7.410;-0.446214;-0.566776
7.420;-0.451081;-0.568658
7.430;-0.457054;-0.569840
7.440;-0.464462;-0.570016
7.450;-0.473348;-0.569037
7.460;-0.483442;-0.566903
7.470;-0.494276;-0.563735
7.480;-0.505335;-0.559720
7.490;-0.516185;-0.555036
7.500;-0.526486;-0.549773
7.510;-0.535964;-0.543907
7.520;-0.544398;-0.537337
7.530;-0.551686;-0.529974
7.540;-0.557942;-0.521815
7.550;-0.563511;-0.512978
7.560;-0.568866;-0.503694
7.570;-0.574404;-0.494251
7.580;-0.580255;-0.484906
7.590;-0.586222;-0.475817
7.600;-0.591852;-0.467044
7.610;-0.596602;-0.458613
7.620;-0.600043;-0.450610
7.630;-0.602020;-0.443223
7.640;-0.602717;-0.436678
7.650;-0.602577;-0.431097
7.660;-0.602121;-0.426375
7.670;-0.601755;-0.422201
7.680;-0.601666;-0.418236
