Time[s];COPx[cm];COPy[cm]
0.010;-0.271445;0.056571
0.020;-0.273591;0.058690
0.030;-0.274442;0.061029
0.040;-0.273070;0.063912
0.050;-0.269006;0.067783
0.060;-0.262200;0.073149
0.070;-0.252843;0.080473
0.080;-0.241174;0.090018
0.090;-0.227400;0.101729
0.100;-0.211744;0.115202
0.110;-0.194547;0.129782
0.120;-0.176353;0.144738
0.130;-0.157877;0.159488
0.140;-0.139907;0.173755
0.150;-0.123153;0.187607
0.160;-0.108139;0.201355
0.170;-0.095133;0.215368
0.180;-0.084121;0.229846
0.190;-0.074777;0.244655
0.200;-0.066475;0.259302
0.210;-0.058392;0.273078
0.220;-0.049751;0.285330
0.230;-0.040111;0.295710
0.240;-0.029606;0.304276
0.250;-0.018986;0.311395
0.260;-0.009436;0.317502
0.270;-0.002248;0.322869
0.280;0.001539;0.327512
0.290;0.001409;0.331272
0.300;-0.002517;0.333985
0.310;-0.009538;0.335646
0.320;-0.018573;0.336458
0.330;-0.028430;0.336750
0.340;-0.038081;0.336821
0.350;-0.046833;0.336809
0.360;-0.054367;0.336669
0.370;-0.060645;0.336249
0.380;-0.065780;0.335416
0.390;-0.069937;0.334129
0.400;-0.073326;0.332436
0.410;-0.076259;0.330389
0.420;-0.079226;0.327971
0.430;-0.082902;0.325071
0.440;-0.088045;0.321539
0.450;-0.095281;0.317264
0.460;-0.104859;0.312244
0.470;-0.116470;0.306610
0.480;-0.129233;0.300593
0.490;-0.141881;0.294468
0.500;-0.153095;0.288505
0.510;-0.161874;0.282927
0.520;-0.167814;0.277904
0.530;-0.171210;0.273562
0.540;-0.172946;0.270019
0.550;-0.174194;0.267440
0.560;-0.176036;0.266062
0.570;-0.179120;0.266151
0.580;-0.183492;0.267892
0.590;-0.188637;0.271253
0.600;-0.193707;0.275896
0.610;-0.197808;0.281196
0.620;-0.200254;0.286374
0.630;-0.200700;0.290702
0.640;-0.199178;0.293707
0.650;-0.196046;0.295304
0.660;-0.191901;0.295817
0.670;-0.187474;0.295874
0.680;-0.183524;0.296186
0.690;-0.180715;0.297293
0.700;-0.179485;0.299376
0.710;-0.179931;0.302237
0.720;-0.181749;0.305425
0.730;-0.184284;0.308439
0.740;-0.186715;0.310902
0.750;-0.188309;0.312660
0.760;-0.188655;0.313793
0.770;-0.187775;0.314581
0.780;-0.186079;0.315435
0.790;-0.184195;0.316817
0.800;-0.182729;0.319139
0.810;-0.182046;0.322685
0.820;-0.182135;0.327568
0.830;-0.182597;0.333716
0.840;-0.182734;0.340871
0.850;-0.181742;0.348600
0.860;-0.178955;0.356329
0.870;-0.174088;0.363432
0.880;-0.167422;0.369336
0.890;-0.159836;0.373627
0.900;-0.152639;0.376123
0.910;-0.147201;0.376898
0.920;-0.144503;0.376234
0.930;-0.144761;0.374548
0.940;-0.147302;0.372339
0.950;-0.150768;0.370139
0.960;-0.153580;0.368445
0.970;-0.154467;0.367623
0.980;-0.152834;0.367849
0.990;-0.148851;0.369112
1.000;-0.143296;0.371269
1.010;-0.137244;0.374093
1.020;-0.131744;0.377253
1.030;-0.127538;0.380279
1.040;-0.124926;0.382589
1.050;-0.123774;0.383590
1.060;-0.123633;0.382850
1.070;-0.123900;0.380224
1.080;-0.123938;0.375926
1.090;-0.123131;0.370496
1.100;-0.120921;0.364679
1.110;-0.116859;0.359231
1.120;-0.110700;0.354695
1.130;-0.102509;0.351251
1.140;-0.092717;0.348698
1.150;-0.082075;0.346572
1.160;-0.071494;0.344347
1.170;-0.061821;0.341615
1.180;-0.053619;0.338194
1.190;-0.047014;0.334129
1.200;-0.041619;0.329615
1.210;-0.036602;0.324864
1.220;-0.030891;0.319991
1.230;-0.023516;0.314948
1.240;-0.013985;0.309569
1.250;-0.002565;0.303691
1.260;0.009679;0.297284
1.270;0.021111;0.290539
1.280;0.029987;0.283823
1.290;0.034977;0.277545
1.300;0.035580;0.271972
1.310;0.032267;0.267109
1.320;0.026330;0.262701
1.330;0.019492;0.258352
1.340;0.013455;0.253700
1.350;0.009488;0.248581
1.360;0.008164;0.243109
1.370;0.009269;0.237659
1.380;0.011903;0.232763
1.390;0.014740;0.228977
1.400;0.016401;0.226749
1.410;0.015842;0.226308
1.420;0.012637;0.227577
1.430;0.007046;0.230179
1.440;-0.000133;0.233568
1.450;-0.007843;0.237282
1.460;-0.015036;0.241199
1.470;-0.020865;0.245642
1.480;-0.024769;0.251240
1.490;-0.026511;0.258623
1.500;-0.026186;0.268085
1.510;-0.024198;0.279401
1.520;-0.021204;0.291863
1.530;-0.017992;0.304505
1.540;-0.015318;0.316402
1.550;-0.013738;0.326896
1.560;-0.013487;0.335686
1.570;-0.014471;0.342789
1.580;-0.016375;0.348442
1.590;-0.018842;0.353004
1.600;-0.021623;0.356878
1.610;-0.024624;0.360448
1.620;-0.027860;0.364016
1.630;-0.031372;0.367758
1.640;-0.035174;0.371699
1.650;-0.039232;0.375727
1.660;-0.043467;0.379657
1.670;-0.047750;0.383317
1.680;-0.051894;0.386610
1.690;-0.055687;0.389514
1.700;-0.058959;0.392049
1.710;-0.061678;0.394240
1.720;-0.064003;0.396122
1.730;-0.066272;0.397738
1.740;-0.068879;0.399137
1.750;-0.072110;0.400331
1.760;-0.075997;0.401263
1.770;-0.080269;0.401786
1.780;-0.084427;0.401688
1.790;-0.087920;0.400750
1.800;-0.090353;0.398834
1.810;-0.091649;0.395953
1.820;-0.092128;0.392308
1.830;-0.092457;0.388228
1.840;-0.093494;0.384019
1.850;-0.096062;0.379796
1.860;-0.100712;0.375396
1.870;-0.107544;0.370419
1.880;-0.116118;0.364393
1.890;-0.125508;0.356987
1.900;-0.134490;0.348160
1.910;-0.141823;0.338182
1.920;-0.146573;0.327498
1.930;-0.148367;0.316512
1.940;-0.147496;0.305395
1.950;-0.144809;0.294029
1.960;-0.141435;0.282102
1.970;-0.138434;0.269305
1.980;-0.136528;0.255556
1.990;-0.135988;0.241152
2.000;-0.136691;0.226814
2.010;-0.138252;0.213602
2.020;-0.140186;0.202690
2.030;-0.142038;0.195049
2.040;-0.143479;0.191158
2.050;-0.144402;0.190872
2.060;-0.145001;0.193514
2.070;-0.145803;0.198146
2.080;-0.147611;0.203859
2.090;-0.151306;0.209998
2.100;-0.157573;0.216232
2.110;-0.166626;0.222506
2.120;-0.178056;0.228919
2.130;-0.190861;0.235600
2.140;-0.203644;0.242625
2.150;-0.214913;0.249993
2.160;-0.223409;0.257642
2.170;-0.228374;0.265457
2.180;-0.229723;0.273245
2.190;-0.228066;0.280716
2.200;-0.224563;0.287520
2.210;-0.220668;0.293369
2.220;-0.217804;0.298150
2.230;-0.217073;0.301976
2.240;-0.219047;0.305126
2.250;-0.223679;0.307928
2.260;-0.230365;0.310645
2.270;-0.238142;0.313412
2.280;-0.245983;0.316218
2.290;-0.253095;0.318912
2.300;-0.259128;0.321257
2.310;-0.264214;0.323020
2.320;-0.268860;0.324079
2.330;-0.273720;0.324506
2.340;-0.279367;0.324557
2.350;-0.286110;0.324543
2.360;-0.293922;0.324645
2.370;-0.302494;0.324754
2.380;-0.311395;0.324480
2.390;-0.320278;0.323317
2.400;-0.329055;0.320871
2.410;-0.337946;0.317020
2.420;-0.347397;0.311916
2.430;-0.357909;0.305864
2.440;-0.369823;0.299174
2.450;-0.383133;0.292077
2.460;-0.397367;0.284728
2.470;-0.411612;0.277265
2.480;-0.424712;0.269857
2.490;-0.435622;0.262734
2.500;-0.443809;0.256175
2.510;-0.449514;0.250475
2.520;-0.453792;0.245896
2.530;-0.458278;0.242606
2.540;-0.464767;0.240640
2.550;-0.474728;0.239862
2.560;-0.488893;0.239967
2.570;-0.507052;0.240507
2.580;-0.528113;0.241000
2.590;-0.550402;0.241057
2.600;-0.572099;0.240495
2.610;-0.591643;0.239384
2.620;-0.608015;0.238015
2.630;-0.620821;0.236809
2.640;-0.630179;0.236178
2.650;-0.636484;0.236360
2.660;-0.640145;0.237289
2.670;-0.641417;0.238539
2.680;-0.640397;0.239420
2.690;-0.637147;0.239203
2.700;-0.631868;0.237401
2.710;-0.625004;0.233989
2.720;-0.617203;0.229460
2.730;-0.609174;0.224697
2.740;-0.601517;0.220724
2.750;-0.594630;0.218459
2.760;-0.588705;0.218516
2.770;-0.583790;0.221094
2.780;-0.579858;0.225940
2.790;-0.576840;0.232393
2.800;-0.574625;0.239503
2.810;-0.573040;0.246240
2.820;-0.571854;0.251741
2.830;-0.570816;0.255531
2.840;-0.569752;0.257652
2.850;-0.568683;0.258647
2.860;-0.567905;0.259430
2.870;-0.567959;0.261063
2.880;-0.569471;0.264522
2.890;-0.572908;0.270464
2.900;-0.578323;0.279036
2.910;-0.585187;0.289772
2.920;-0.592408;0.301652
2.930;-0.598538;0.313362
2.940;-0.602148;0.323683
2.950;-0.602249;0.331860
2.960;-0.598615;0.337796
2.970;-0.591920;0.341976
2.980;-0.583643;0.345204
2.990;-0.575742;0.348279
3.000;-0.570152;0.351750
3.010;-0.568259;0.355818
3.020;-0.570508;0.360372
3.030;-0.576292;0.365110
3.040;-0.584134;0.369678
3.050;-0.592093;0.373793
3.060;-0.598263;0.377368
3.070;-0.601248;0.380600
3.080;-0.600495;0.383980
3.090;-0.596387;0.388165
3.100;-0.590057;0.393714
3.110;-0.582974;0.400814
3.120;-0.576430;0.409147
3.130;-0.571102;0.417974
3.140;-0.566830;0.426400
3.150;-0.562688;0.433684
3.160;-0.557308;0.439489
3.170;-0.549340;0.443960
3.180;-0.537872;0.447632
3.190;-0.522680;0.451177
3.200;-0.504215;0.455106
3.210;-0.483366;0.459542
3.220;-0.461098;0.464194
3.230;-0.438131;0.468525
3.240;-0.414771;0.472057
3.250;-0.390943;0.474667
3.260;-0.366348;0.476753
3.270;-0.340677;0.479162
3.280;-0.313752;0.482907
3.290;-0.285560;0.488772
3.300;-0.256195;0.496986
3.310;-0.225789;0.507080
3.320;-0.194495;0.517985
3.330;-0.162570;0.528312
3.340;-0.130511;0.536695
3.350;-0.099165;0.542098
3.360;-0.069761;0.543995
3.370;-0.043798;0.542427
3.380;-0.022834;0.537933
3.390;-0.008188;0.531394
3.400;-0.000656;0.523827
3.410;-0.000278;0.516165
3.420;-0.006261;0.509092
3.430;-0.017089;0.502951
3.440;-0.030841;0.497755
3.450;-0.045664;0.493273
3.460;-0.060251;0.489160
3.470;-0.074096;0.485116
3.480;-0.087414;0.481027
3.490;-0.100739;0.477016
3.500;-0.114396;0.473378
3.510;-0.128122;0.470399
3.520;-0.141012;0.468172
3.530;-0.151833;0.466502
3.540;-0.159554;0.464982
3.550;-0.163846;0.463159
3.560;-0.165332;0.460707
3.570;-0.165464;0.457505
3.580;-0.166097;0.453629
3.590;-0.168917;0.449270
3.600;-0.174935;0.444619
3.610;-0.184229;0.439752
3.620;-0.195983;0.434583
3.630;-0.208791;0.428909
3.640;-0.221090;0.422544
3.650;-0.231627;0.415436
3.660;-0.239789;0.407695
3.670;-0.245733;0.399510
3.680;-0.250249;0.391018
3.690;-0.254415;0.382233
3.700;-0.259160;0.373051
3.710;-0.264866;0.363312
3.720;-0.271134;0.352876
3.730;-0.276807;0.341713
3.740;-0.280269;0.330001
3.750;-0.279956;0.318172
3.760;-0.274945;0.306845
3.770;-0.265382;0.296657
3.780;-0.252589;0.288055
3.790;-0.238774;0.281155
3.800;-0.226425;0.275719
3.810;-0.217603;0.271236
3.820;-0.213345;0.267067
3.830;-0.213359;0.262592
3.840;-0.216104;0.257302
3.850;-0.219185;0.250832
3.860;-0.219971;0.242947
3.870;-0.216227;0.233544
3.880;-0.206604;0.222653
3.890;-0.190871;0.210451
3.900;-0.169856;0.197260
3.910;-0.145170;0.183554
3.920;-0.118789;0.169943
3.930;-0.092622;0.157116
3.940;-0.068125;0.145740
3.950;-0.046052;0.136345
3.960;-0.026409;0.129272
3.970;-0.008623;0.124690
3.980;0.008115;0.122648
3.990;0.024463;0.123091
4.000;0.040620;0.125838
4.010;0.056203;0.130551
4.020;0.070336;0.136769
4.030;0.081902;0.143983
4.040;0.089862;0.151760
4.050;0.093550;0.159845
4.060;0.092850;0.168218
4.070;0.088200;0.177053
4.080;0.080416;0.186566
4.090;0.070412;0.196831
4.100;0.058931;0.207632
4.110;0.046402;0.218448
4.120;0.032986;0.228580
4.130;0.018784;0.237402
4.140;0.004069;0.244659
4.150;-0.010552;0.250662
4.160;-0.024172;0.256275
4.170;-0.035796;0.262630
4.180;-0.044668;0.270717
4.190;-0.050569;0.280991
4.200;-0.053957;0.293193
4.210;-0.055881;0.306406
4.220;-0.057726;0.319352
4.230;-0.060864;0.330803
4.240;-0.066306;0.339978
4.250;-0.074419;0.346773
4.260;-0.084789;0.351751
4.270;-0.096277;0.355884
4.280;-0.107301;0.360189
4.290;-0.116261;0.365376
4.300;-0.121988;0.371641
4.310;-0.124065;0.378649
4.320;-0.122910;0.385715
4.330;-0.119579;0.392076
4.340;-0.115339;0.397195
4.350;-0.111202;0.400957
4.360;-0.107576;0.403699
4.370;-0.104203;0.406056
4.380;-0.100346;0.408675
4.390;-0.095144;0.411933
4.400;-0.087960;0.415787
4.410;-0.078608;0.419801
4.420;-0.067430;0.423338
4.430;-0.055198;0.425796
4.440;-0.042912;0.426820
4.450;-0.031545;0.426421
4.460;-0.021824;0.424980
4.470;-0.014099;0.423106
4.480;-0.008339;0.421395
4.490;-0.004243;0.420175
4.500;-0.001415;0.419387
4.510;0.000474;0.418663
4.520;0.001601;0.417526
4.530;0.002000;0.415619
4.540;0.001634;0.412828
4.550;0.000479;0.409290
4.560;-0.001429;0.405327
4.570;-0.003998;0.401339
4.580;-0.007121;0.397713
4.590;-0.010726;0.394732
4.600;-0.014782;0.392526
4.610;-0.019256;0.391036
4.620;-0.024049;0.390042
4.630;-0.028948;0.389237
4.640;-0.033641;0.388324
4.650;-0.037798;0.387087
4.660;-0.041170;0.385398
4.670;-0.043676;0.383171
4.680;-0.045421;0.380346
4.690;-0.046657;0.376922
4.700;-0.047679;0.373032
4.710;-0.048726;0.368973
4.720;-0.049899;0.365140
4.730;-0.051138;0.361855
4.740;-0.052273;0.359186
4.750;-0.053128;0.356826
4.760;-0.053630;0.354091
4.770;-0.053877;0.350082
4.780;-0.054120;0.343947
4.790;-0.054680;0.335169
4.800;-0.055832;0.323770
4.810;-0.057721;0.310378
4.820;-0.060314;0.296104
4.830;-0.063430;0.282308
4.840;-0.066820;0.270294
4.850;-0.070283;0.261045
4.860;-0.073762;0.255025
4.870;-0.077384;0.252129
4.880;-0.081421;0.251758
4.890;-0.086200;0.253017
4.900;-0.091990;0.254954
4.910;-0.098898;0.256778
4.920;-0.106824;0.258003
4.930;-0.115495;0.258516
4.940;-0.124571;0.258533
4.950;-0.133799;0.258482
4.960;-0.143134;0.258816
4.970;-0.152770;0.259829
4.980;-0.163054;0.261561
4.990;-0.174291;0.263812
5.000;-0.186530;0.266242
5.010;-0.199408;0.268489
5.020;-0.212139;0.270263
5.030;-0.223664;0.271401
5.040;-0.232904;0.271906
5.050;-0.239004;0.271955
5.060;-0.241537;0.271862
5.070;-0.240613;0.271999
5.080;-0.236893;0.272703
5.090;-0.231493;0.274183
5.100;-0.225793;0.276477
5.110;-0.221184;0.279456
5.120;-0.218807;0.282865
5.130;-0.219329;0.286380
5.140;-0.222767;0.289675
5.150;-0.228416;0.292470
5.160;-0.234939;0.294560
5.170;-0.240655;0.295838
5.180;-0.243983;0.296311
5.190;-0.243905;0.296118
5.200;-0.240278;0.295535
5.210;-0.233886;0.294954
5.220;-0.226196;0.294802
5.230;-0.218905;0.295402
5.240;-0.213415;0.296805
5.250;-0.210427;0.298697
5.260;-0.209785;0.300452
5.270;-0.210593;0.301362
5.280;-0.211563;0.300949
5.290;-0.211441;0.299194
5.300;-0.209418;0.296592
5.310;-0.205392;0.293976
5.320;-0.200001;0.292214
5.330;-0.194424;0.291901
5.340;-0.190006;0.293132
5.350;-0.187826;0.295467
5.360;-0.188340;0.298070
5.370;-0.191227;0.299987
5.380;-0.195470;0.300467
5.390;-0.199664;0.299176
5.400;-0.202406;0.296275
5.410;-0.202674;0.292338
5.420;-0.200074;0.288158
5.430;-0.194931;0.284519
5.440;-0.188190;0.281985
5.450;-0.181168;0.280758
5.460;-0.175197;0.280644
5.470;-0.171292;0.281121
5.480;-0.169907;0.281492
5.490;-0.170886;0.281072
5.500;-0.173563;0.279347
5.510;-0.176969;0.276090
5.520;-0.180078;0.271403
5.530;-0.182021;0.265681
5.540;-0.182235;0.259478
5.550;-0.180512;0.253313
5.560;-0.176956;0.247475
5.570;-0.171903;0.241946
5.580;-0.165826;0.236472
5.590;-0.159255;0.230793
5.600;-0.152693;0.224896
5.610;-0.146527;0.219211
5.620;-0.140936;0.214596
5.630;-0.135852;0.212121
5.640;-0.130980;0.212698
5.650;-0.125885;0.216716
5.660;-0.120132;0.223872
5.670;-0.113437;0.233268
5.680;-0.105804;0.243724
5.690;-0.097607;0.254140
5.700;-0.089568;0.263747
5.710;-0.082607;0.272194
5.720;-0.077569;0.279494
5.730;-0.074888;0.285895
5.740;-0.074351;0.291719
5.750;-0.075087;0.297221
5.760;-0.075852;0.302496
5.770;-0.075501;0.307477
5.780;-0.073479;0.311984
5.790;-0.070107;0.315795
5.800;-0.066540;0.318726
5.810;-0.064397;0.320694
5.820;-0.065221;0.321759
5.830;-0.069959;0.322121
5.840;-0.078633;0.322056
5.850;-0.090293;0.321801
5.860;-0.103242;0.321437
5.870;-0.115459;0.320845
5.880;-0.125140;0.319799
5.890;-0.131197;0.318162
5.900;-0.133608;0.316082
5.910;-0.133481;0.314049
5.920;-0.132770;0.312751
5.930;-0.133716;0.312805
5.940;-0.138203;0.314501
5.950;-0.147239;0.317706
5.960;-0.160737;0.321951
5.970;-0.177592;0.326627
5.980;-0.195990;0.331152
5.990;-0.213859;0.335067
6.000;-0.229360;0.338078
6.010;-0.241329;0.340088
6.020;-0.249528;0.341228
6.030;-0.254635;0.341815
6.040;-0.257983;0.342238
6.050;-0.261179;0.342784
6.060;-0.265704;0.343523
6.070;-0.272589;0.344305
6.080;-0.282191;0.344861
6.090;-0.294109;0.344945
6.100;-0.307290;0.344462
6.110;-0.320317;0.343521
6.120;-0.331814;0.342393
6.130;-0.340814;0.341370
6.140;-0.346975;0.340599
6.150;-0.350551;0.339970
6.160;-0.352163;0.339131
6.170;-0.352495;0.337637
6.180;-0.352054;0.335126
6.190;-0.351059;0.331447
6.200;-0.349460;0.326661
6.210;-0.347035;0.320947
6.220;-0.343529;0.314482
6.230;-0.338806;0.307350
6.240;-0.332995;0.299492
6.250;-0.326590;0.290705
6.260;-0.320442;0.280710
6.270;-0.315596;0.269260
6.280;-0.312986;0.256240
6.290;-0.313051;0.241699
6.300;-0.315457;0.225820
6.310;-0.319038;0.208843
6.320;-0.322055;0.191016
6.330;-0.322667;0.172579
6.340;-0.319474;0.153795
6.350;-0.311925;0.134964
6.360;-0.300472;0.116419
6.370;-0.286386;0.098461
6.380;-0.271337;0.081308
6.390;-0.256862;0.065090
6.400;-0.243933;0.049923
6.410;-0.232757;0.036015
6.420;-0.222847;0.023710
6.430;-0.213281;0.013433
6.440;-0.203054;0.005579
6.450;-0.191410;0.000398
6.460;-0.178078;-0.002049
6.470;-0.163362;-0.001836
6.480;-0.148052;0.000949
6.490;-0.133188;0.006298
6.500;-0.119732;0.014302
6.510;-0.108260;0.025046
6.520;-0.098799;0.038458
6.530;-0.090855;0.054184
6.540;-0.083632;0.071579
6.550;-0.076350;0.089836
6.560;-0.068534;0.108228
6.570;-0.060159;0.126360
6.580;-0.051624;0.144325
6.590;-0.043580;0.162657
6.600;-0.036664;0.182112
6.610;-0.031209;0.203358
6.620;-0.027030;0.226713
6.630;-0.023378;0.252029
6.640;-0.019099;0.278725
6.650;-0.012976;0.305921
6.660;-0.004133;0.332631
6.670;0.007628;0.357941
6.680;0.021673;0.381136
6.690;0.036608;0.401782
6.700;0.050586;0.419751
6.710;0.061739;0.435192
6.720;0.068629;0.448450
6.730;0.070581;0.459939
6.740;0.067791;0.470003
6.750;0.061226;0.478812
6.760;0.052366;0.486333
6.770;0.042854;0.492396
6.780;0.034134;0.496812
6.790;0.027126;0.499495
6.800;0.022030;0.500535
6.810;0.018331;0.500211
6.820;0.014980;0.498932
6.830;0.010716;0.497145
6.840;0.004403;0.495241
6.850;-0.004675;0.493501
6.860;-0.016632;0.492069
6.870;-0.030979;0.490934
6.880;-0.046795;0.489913
6.890;-0.063044;0.488640
6.900;-0.078910;0.486620
6.910;-0.093995;0.483352
6.920;-0.108310;0.478481
6.930;-0.122042;0.471924
6.940;-0.135249;0.463916
6.950;-0.147615;0.454939
6.960;-0.158391;0.445557
6.970;-0.166536;0.436199
6.980;-0.170980;0.426984
6.990;-0.170937;0.417676
7.000;-0.166146;0.407792
7.010;-0.157002;0.396799
7.020;-0.144482;0.384302
7.030;-0.129883;0.370122
7.040;-0.114415;0.354243
7.050;-0.098805;0.336697
7.060;-0.083053;0.317470
7.070;-0.066458;0.296532
7.080;-0.047904;0.273990
7.090;-0.026318;0.250283
7.100;-0.001105;0.226263
7.110;0.027578;0.203095
7.120;0.058812;0.182011
7.130;0.091142;0.164036
7.140;0.122927;0.149812
7.150;0.152675;0.139557
7.160;0.179291;0.133148
7.170;0.202164;0.130237
7.180;0.221135;0.130326
7.190;0.236358;0.132782
7.200;0.248133;0.136830
7.210;0.256748;0.141603
7.220;0.262387;0.146277
7.230;0.265108;0.150256
7.240;0.264880;0.153323
7.250;0.261649;0.155695
7.260;0.255402;0.157964
7.270;0.246217;0.160926
7.280;0.234318;0.165360
7.290;0.220135;0.171795
7.300;0.204334;0.180336
7.310;0.187762;0.190601
7.320;0.171271;0.201821
7.330;0.155455;0.213070
7.340;0.140414;0.223496
7.350;0.125684;0.232476
7.360;0.110392;0.239633
7.370;0.093600;0.244795
7.380;0.074713;0.247961
7.390;0.053780;0.249331
7.400;0.031581;0.249363
7.410;0.009441;0.248786
7.420;-0.011163;0.248462
7.430;-0.029073;0.249123
7.440;-0.043829;0.251079
7.450;-0.055810;0.254058
7.460;-0.066048;0.257282
7.470;-0.075806;0.259735
7.480;-0.086079;0.260504
7.490;-0.097283;0.259048
7.500;-0.109240;0.255316
7.510;-0.121440;0.249732
7.520;-0.133390;0.243061
7.530;-0.144848;0.236216
7.540;-0.155814;0.230050
7.550;-0.166313;0.225158
7.560;-0.176139;0.221753
7.570;-0.184720;0.219643
7.580;-0.191204;0.218324
7.590;-0.194714;0.217160
7.600;-0.194652;0.215567
7.610;-0.190914;0.213133
7.620;-0.183933;0.209637
7.630;-0.174534;0.204988
7.640;-0.163667;0.199139
7.650;-0.152109;0.192011
7.660;-0.140247;0.183462
7.670;-0.128006;0.173335
7.680;-0.114935;0.161542
7.690;-0.100377;0.148137
7.700;-0.083674;0.133318
7.710;-0.064354;0.117356
7.720;-0.042308;0.100528
7.730;-0.017931;0.083091
7.740;0.007827;0.065332
7.750;0.033565;0.047624
7.760;0.057715;0.030431
7.770;0.078939;0.014236
7.780;0.096543;-0.000584
7.790;0.110727;-0.013871
7.800;0.122570;-0.025716
7.810;0.133722;-0.036392
7.820;0.145899;-0.046196
7.830;0.160359;-0.055269
7.840;0.177524;-0.063495
7.850;0.196843;-0.070480
7.860;0.216944;-0.075636
7.870;0.236012;-0.078268
7.880;0.252294;-0.077651
7.890;0.264556;-0.073093
7.900;0.272356;-0.064028
7.910;0.276069;-0.050164
7.920;0.276660;-0.031658
7.930;0.275329;-0.009214
7.940;0.273147;0.015968
7.950;0.270827;0.042426
7.960;0.268643;0.068764
7.970;0.266495;0.093925
7.980;0.264039;0.117338
7.990;0.260831;0.138902
8.000;0.256445;0.158903
8.010;0.250559;0.177892
8.020;0.243032;0.196591
8.030;0.233945;0.215772
