Time[s];COPx[cm];COPy[cm]
0.010;-2.105918;0.737980
0.020;-2.084778;0.735637
0.030;-2.064718;0.732085
0.040;-2.046885;0.726323
0.050;-2.032219;0.717592
0.060;-2.021327;0.705508
0.070;-2.014448;0.690103
0.080;-2.011559;0.671733
0.090;-2.012595;0.650883
0.100;-2.017699;0.627971
0.110;-2.027338;0.603197
0.120;-2.042202;0.576491
0.130;-2.062894;0.547504
0.140;-2.089493;0.515705
0.150;-2.121152;0.480581
0.160;-2.155883;0.441942
0.170;-2.190669;0.400231
0.180;-2.221973;0.356653
0.190;-2.246558;0.313029
0.200;-2.262412;0.271410
0.210;-2.269376;0.233617
0.220;-2.269175;0.200915
0.230;-2.264800;0.173878
0.240;-2.259499;0.152439
0.250;-2.255836;0.135988
0.260;-2.255160;0.123493
0.270;-2.257584;0.113661
0.280;-2.262368;0.105154
0.290;-2.268475;0.096874
0.300;-2.275090;0.088194
0.310;-2.281943;0.079010
0.320;-2.289335;0.069569
0.330;-2.297868;0.060098
0.340;-2.307961;0.050431
0.350;-2.319308;0.039796
0.360;-2.330451;0.026952
0.370;-2.338673;0.010662
0.380;-2.340332;-0.009700
0.390;-2.331665;-0.033728
0.400;-2.309857;-0.059996
0.410;-2.274013;-0.086508
0.420;-2.225571;-0.111353
0.430;-2.167898;-0.133267
0.440;-2.105138;-0.151886
0.450;-2.040731;-0.167648
0.460;-1.976185;-0.181440
0.470;-1.910560;-0.194162
0.480;-1.840878;-0.206372
0.490;-1.763344;-0.218108
0.500;-1.674957;-0.228934
0.510;-1.574931;-0.238188
0.520;-1.465322;-0.245345
0.530;-1.350584;-0.250382
0.540;-1.236222;-0.254028
0.550;-1.127095;-0.257816
0.560;-1.026038;-0.263850
0.570;-0.933273;-0.274314
0.580;-0.846790;-0.290826
0.590;-0.763490;-0.313914
0.600;-0.680651;-0.342855
0.610;-0.597140;-0.376010
0.620;-0.513956;-0.411471
0.630;-0.433961;-0.447628
0.640;-0.361009;-0.483356
0.650;-0.298832;-0.517763
0.660;-0.250027;-0.549712
0.670;-0.215398;-0.577412
0.680;-0.193727;-0.598376
0.690;-0.182026;-0.609900
0.700;-0.176163;-0.609945
0.710;-0.171746;-0.598110
0.720;-0.165003;-0.576148
0.730;-0.153444;-0.547666
0.740;-0.136119;-0.516984
0.750;-0.113409;-0.487665
0.760;-0.086490;-0.461408
0.770;-0.056670;-0.437772
0.780;-0.024874;-0.414759
0.790;0.008566;-0.389846
0.800;0.043760;-0.361002
0.810;0.080863;-0.327332
0.820;0.119622;-0.289228
0.830;0.159118;-0.248129
0.840;0.197801;-0.206029
0.850;0.233812;-0.164967
0.860;0.265442;-0.126620
0.870;0.291517;-0.092101
0.880;0.311548;-0.061920
0.890;0.325583;-0.036048
0.900;0.333845;-0.014032
0.910;0.336367;0.004883
0.920;0.332822;0.021591
0.930;0.322671;0.036980
0.940;0.305581;0.051832
0.950;0.281903;0.066794
0.960;0.252954;0.082446
0.970;0.220880;0.099406
0.980;0.188045;0.118493
0.990;0.156147;0.140910
1.000;0.125404;0.168364
1.010;0.094208;0.203021
1.020;0.059444;0.247180
1.030;0.017437;0.302656
1.040;-0.034770;0.370019
1.050;-0.098179;0.447908
1.060;-0.171071;0.532704
1.070;-0.249027;0.618798
1.080;-0.325889;0.699525
1.090;-0.395467;0.768618
1.100;-0.453405;0.821711
1.110;-0.498466;0.857331
1.120;-0.532679;0.877016
1.130;-0.560326;0.884553
1.140;-0.586253;0.884720
1.150;-0.614206;0.882027
1.160;-0.645812;0.879839
1.170;-0.680465;0.880038
1.180;-0.716057;0.883201
1.190;-0.750140;0.889100
1.200;-0.781032;0.897273
1.210;-0.808444;0.907416
1.220;-0.833505;0.919462
1.230;-0.858238;0.933376
1.240;-0.884789;0.948808
1.250;-0.914648;0.964787
1.260;-0.948117;0.979667
1.270;-0.984129;0.991414
1.280;-1.020461;0.998206
1.290;-1.054315;0.999102
1.300;-1.083095;0.994464
1.310;-1.105150;0.985898
1.320;-1.120247;0.975716
1.330;-1.129595;0.966145
1.340;-1.135448;0.958635
1.350;-1.140382;0.953535
1.360;-1.146438;0.950210
1.370;-1.154334;0.947476
1.380;-1.162958;0.944128
1.390;-1.169325;0.939362
1.400;-1.169140;0.932978
1.410;-1.157902;0.925382
1.420;-1.132252;0.917428
1.430;-1.091070;0.910189
1.440;-1.035887;0.904741
1.450;-0.970446;0.902017
1.460;-0.899641;0.902780
1.470;-0.828272;0.907669
1.480;-0.760027;0.917251
1.490;-0.696905;0.931977
1.500;-0.639122;0.952029
1.510;-0.585391;0.977095
1.520;-0.533467;1.006187
1.530;-0.480770;1.037592
1.540;-0.424930;1.069004
1.550;-0.364130;1.097810
1.560;-0.297200;1.121426
1.570;-0.223508;1.137649
1.580;-0.142748;1.144963
1.590;-0.054750;1.142781
1.600;0.040618;1.131526
1.610;0.143416;1.112537
1.620;0.253518;1.087788
1.630;0.370472;1.059541
1.640;0.493391;1.030006
1.650;0.620911;1.001106
1.660;0.751205;0.974340
1.670;0.882058;0.950738
1.680;1.010988;0.930899
1.690;1.135400;0.915090
1.700;1.252758;0.903340
1.710;1.360757;0.895420
1.720;1.457491;0.890713
1.730;1.541602;0.888069
1.740;1.612406;0.885807
1.750;1.669927;0.881935
1.760;1.714792;0.874510
1.770;1.747970;0.862005
1.780;1.770442;0.843544
1.790;1.782940;0.819000
1.800;1.785862;0.789016
1.810;1.779380;0.755000
1.820;1.763633;0.719037
1.830;1.738893;0.683615
1.840;1.705608;0.651087
1.850;1.664295;0.622949
1.860;1.615360;0.599183
1.870;1.558985;0.578027
1.880;1.495249;0.556386
1.890;1.424532;0.530837
1.900;1.348069;0.498893
1.910;1.268376;0.460017
1.920;1.189212;0.415925
1.930;1.114943;0.370025
1.940;1.049479;0.326204
1.950;0.995263;0.287518
1.960;0.952860;0.255358
1.970;0.921348;0.229360
1.980;0.899292;0.207955
1.990;0.885740;0.189202
2.000;0.880698;0.171514
2.010;0.884907;0.154044
2.020;0.899069;0.136648
2.030;0.922996;0.119567
2.040;0.955082;0.103041
2.050;0.992333;0.087052
2.060;1.030852;0.071274
2.070;1.066548;0.055200
2.080;1.095805;0.038366
2.090;1.116004;0.020563
2.100;1.125810;0.001983
2.110;1.125211;-0.016780
2.120;1.115207;-0.034868
2.130;1.097161;-0.051463
2.140;1.071895;-0.066168
2.150;1.038817;-0.079318
2.160;0.995412;-0.091995
2.170;0.937352;-0.105609
2.180;0.859222;-0.121139
2.190;0.755690;-0.138304
2.200;0.622856;-0.155024
2.210;0.459594;-0.167449
2.220;0.268597;-0.170675
2.230;0.056745;-0.160057
2.240;-0.165613;-0.132814
2.250;-0.386623;-0.089307
2.260;-0.595662;-0.033346
2.270;-0.785804;0.028785
2.280;-0.954973;0.090165
2.290;-1.105384;0.145052
2.300;-1.241796;0.189847
2.310;-1.369506;0.223065
2.320;-1.492840;0.244674
2.330;-1.614358;0.255348
2.340;-1.734651;0.255984
2.350;-1.852456;0.247551
2.360;-1.964919;0.231191
2.370;-2.067944;0.208398
2.380;-2.156669;0.181121
2.390;-2.226139;0.151669
2.400;-2.272192;0.122392
2.410;-2.292446;0.095207
2.420;-2.287070;0.071150
2.430;-2.259028;0.050138
2.440;-2.213603;0.031047
2.450;-2.157289;0.012062
2.460;-2.096409;-0.008878
2.470;-2.035889;-0.033631
2.480;-1.978541;-0.063461
2.490;-1.925003;-0.098677
2.500;-1.874300;-0.138375
2.510;-1.824784;-0.180421
2.520;-1.775117;-0.221803
2.530;-1.724947;-0.259330
2.540;-1.675071;-0.290533
2.550;-1.627069;-0.314493
2.560;-1.582604;-0.332316
2.570;-1.542674;-0.347085
2.580;-1.507103;-0.363208
2.590;-1.474451;-0.385286
2.600;-1.442394;-0.416778
2.610;-1.408441;-0.458852
2.620;-1.370720;-0.509830
2.630;-1.328526;-0.565494
2.640;-1.282394;-0.620202
2.650;-1.233734;-0.668455
2.660;-1.184229;-0.706340
2.670;-1.135273;-0.732377
2.680;-1.087625;-0.747567
2.690;-1.041344;-0.754742
2.700;-0.995957;-0.757493
2.710;-0.950771;-0.759051
2.720;-0.905193;-0.761448
2.730;-0.858976;-0.765157
2.740;-0.812312;-0.769263
2.750;-0.765808;-0.772032
2.760;-0.720372;-0.771681
2.770;-0.677051;-0.767075
2.780;-0.636870;-0.758121
2.790;-0.600673;-0.745771
2.800;-0.569015;-0.731684
2.810;-0.542123;-0.717756
2.820;-0.519927;-0.705694
2.830;-0.502140;-0.696731
2.840;-0.488331;-0.691482
2.850;-0.477991;-0.689928
2.860;-0.470590;-0.691472
2.870;-0.465622;-0.695022
2.880;-0.462629;-0.699068
2.890;-0.461190;-0.701778
2.900;-0.460870;-0.701166
2.910;-0.461181;-0.695362
2.920;-0.461583;-0.682935
2.930;-0.461522;-0.663198
2.940;-0.460535;-0.636401
2.950;-0.458377;-0.603735
2.960;-0.455139;-0.567109
2.970;-0.451259;-0.528741
2.980;-0.447392;-0.490666
2.990;-0.444151;-0.454329
3.000;-0.441839;-0.420349
3.010;-0.440296;-0.388534
3.020;-0.438944;-0.358055
3.030;-0.436988;-0.327707
3.040;-0.433680;-0.296142
3.050;-0.428503;-0.262001
3.060;-0.421221;-0.223948
3.070;-0.411764;-0.180656
3.080;-0.400092;-0.130883
3.090;-0.386107;-0.073741
3.100;-0.369628;-0.009167
3.110;-0.350374;0.061621
3.120;-0.327831;0.135948
3.130;-0.301056;0.209999
3.140;-0.268500;0.279576
3.150;-0.228060;0.341073
3.160;-0.177448;0.392305
3.170;-0.114866;0.432933
3.180;-0.039749;0.464358
3.190;0.046735;0.489173
3.200;0.141658;0.510387
3.210;0.240788;0.530706
3.220;0.339316;0.552080
3.230;0.432556;0.575553
3.240;0.516434;0.601363
3.250;0.587674;0.629123
3.260;0.643761;0.658032
3.270;0.682803;0.687105
3.280;0.703432;0.715518
3.290;0.704809;0.743091
3.300;0.686706;0.770780
3.310;0.649594;0.800896
3.320;0.594681;0.836759
3.330;0.523928;0.881695
3.340;0.440099;0.937629
3.350;0.346774;1.003883
3.360;0.248223;1.076794
3.370;0.148982;1.150477
3.380;0.053203;1.218461
3.390;-0.036040;1.275526
3.400;-0.117171;1.318981
3.410;-0.190079;1.349031
3.420;-0.255665;1.368318
3.430;-0.315188;1.381019
3.440;-0.369693;1.391874
3.450;-0.419692;1.405328
3.460;-0.465121;1.424841
3.470;-0.505443;1.452343
3.480;-0.539730;1.487866
3.490;-0.566648;1.529438
3.500;-0.584397;1.573349
3.510;-0.590830;1.614843
3.520;-0.583944;1.649166
3.530;-0.562699;1.672691
3.540;-0.527858;1.683749
3.550;-0.482397;1.682849
3.560;-0.431199;1.672251
3.570;-0.380103;1.655132
3.580;-0.334654;1.634730
3.590;-0.299010;1.613743
3.600;-0.275357;1.594084
3.610;-0.263948;1.576925
3.620;-0.263659;1.562858
3.630;-0.272794;1.552019
3.640;-0.289809;1.544091
3.650;-0.313775;1.538218
3.660;-0.344467;1.532946
3.670;-0.382111;1.526345
3.680;-0.426866;1.516382
3.690;-0.478173;1.501486
3.700;-0.534204;1.481100
3.710;-0.591651;1.455989
3.720;-0.646037;1.428129
3.730;-0.692550;1.400185
3.740;-0.727150;1.374781
3.750;-0.747524;1.353838
3.760;-0.753489;1.338210
3.770;-0.746697;1.327697
3.780;-0.729856;1.321355
3.790;-0.705868;1.317953
3.800;-0.677257;1.316405
3.810;-0.646019;1.316054
3.820;-0.613780;1.316736
3.830;-0.581976;1.318628
3.840;-0.551825;1.321913
3.850;-0.524046;1.326388
3.860;-0.498408;1.331160
3.870;-0.473352;1.334558
3.880;-0.445934;1.334367
3.890;-0.412272;1.328365
3.900;-0.368498;1.315020
3.910;-0.311951;1.294070
3.920;-0.242118;1.266746
3.930;-0.160873;1.235492
3.940;-0.071853;1.203330
3.950;0.020687;1.173114
3.960;0.113021;1.146945
3.970;0.202611;1.125902
3.980;0.288144;1.110099
3.990;0.369054;1.098995
4.000;0.444840;1.091782
4.010;0.514516;1.087665
4.020;0.576470;1.085894
4.030;0.628833;1.085544
4.040;0.670257;1.085163
4.050;0.700790;1.082546
4.060;0.722453;1.074857
4.070;0.739174;1.059230
4.080;0.755974;1.033658
4.090;0.777617;0.997770
4.100;0.807214;0.953059
4.110;0.845382;0.902449
4.120;0.890275;0.849408
4.130;0.938388;0.797029
4.140;0.985720;0.747383
4.150;1.028821;0.701284
4.160;1.065441;0.658412
4.170;1.094745;0.617670
4.180;1.117183;0.577598
4.190;1.134157;0.536731
4.200;1.147584;0.493869
4.210;1.159440;0.448302
4.220;1.171323;0.400003
4.230;1.184083;0.349731
4.240;1.197609;0.298960
4.250;1.210811;0.249610
4.260;1.221824;0.203659
4.270;1.228397;0.162758
4.280;1.228368;0.127961
4.290;1.220108;0.099631
4.300;1.202833;0.077520
4.310;1.176735;0.060961
4.320;1.142901;0.049071
4.330;1.102994;0.040861
4.340;1.058719;0.035225
4.350;1.011214;0.030839
4.360;0.960607;0.026121
4.370;0.906010;0.019398
4.380;0.846012;0.009289
4.390;0.779511;-0.004838
4.400;0.706511;-0.022501
4.410;0.628531;-0.042001
4.420;0.548400;-0.060656
4.430;0.469495;-0.075357
4.440;0.394739;-0.083341
4.450;0.325761;-0.082917
4.460;0.262531;-0.073884
4.470;0.203596;-0.057491
4.480;0.146794;-0.036015
4.490;0.090137;-0.012157
4.500;0.032513;0.011512
4.510;-0.026036;0.032962
4.520;-0.084517;0.050962
4.530;-0.141513;0.065209
4.540;-0.195755;0.076331
4.550;-0.246443;0.085692
4.560;-0.293203;0.095008
4.570;-0.335752;0.105825
4.580;-0.373523;0.119017
4.590;-0.405476;0.134431
4.600;-0.430220;0.150839
4.610;-0.446381;0.166244
4.620;-0.453052;0.178459
4.630;-0.450164;0.185773
4.640;-0.438671;0.187425
4.650;-0.420543;0.183760
4.660;-0.398556;0.176061
4.670;-0.375928;0.166197
4.680;-0.355831;0.156209
4.690;-0.340930;0.147915
4.700;-0.333056;0.142566
4.710;-0.333147;0.140585
4.720;-0.341471;0.141447
4.730;-0.358031;0.143733
4.740;-0.382982;0.145409
4.750;-0.416858;0.144388
4.760;-0.460494;0.139323
4.770;-0.514672;0.130431
4.780;-0.579641;0.119997
4.790;-0.654762;0.112265
4.800;-0.738442;0.112590
4.810;-0.828423;0.126063
4.820;-0.922301;0.156045
4.830;-1.018013;0.203125
4.840;-1.114075;0.264864
4.850;-1.209490;0.336392
4.860;-1.303451;0.411615
4.870;-1.395075;0.484612
4.880;-1.483353;0.550780
4.890;-1.567341;0.607400
4.900;-1.646478;0.653586
4.910;-1.720846;0.689782
4.920;-1.791221;0.717120
4.930;-1.858849;0.736898
4.940;-1.924977;0.750317
4.950;-1.990339;0.758448
4.960;-2.054795;0.762324
4.970;-2.117323;0.762996
4.980;-2.176395;0.761479
4.990;-2.230608;0.758607
5.000;-2.279310;0.754912
5.010;-2.322935;0.750619
5.020;-2.362913;0.745773
5.030;-2.401188;0.740424
5.040;-2.439518;0.734774
5.050;-2.478788;0.729207
5.060;-2.518519;0.724226
5.070;-2.556729;0.720359
5.080;-2.590235;0.718100
5.090;-2.615386;0.717873
5.100;-2.628968;0.719970
5.110;-2.628963;0.724432
5.120;-2.614802;0.730936
5.130;-2.587036;0.738781
5.140;-2.546623;0.747049
5.150;-2.494273;0.754908
5.160;-2.430171;0.761920
5.170;-2.354197;0.768208
5.180;-2.266477;0.774359
5.190;-2.167944;0.781102
5.200;-2.060670;0.788896
5.210;-1.947853;0.797605
5.220;-1.833488;0.806374
5.230;-1.721857;0.813760
5.240;-1.616964;0.818071
5.250;-1.522004;0.817805
5.260;-1.438960;0.812103
5.270;-1.368348;0.801102
5.280;-1.309181;0.786119
5.290;-1.259136;0.769571
5.300;-1.214922;0.754580
5.310;-1.172790;0.744285
5.320;-1.129121;0.741024
5.330;-1.081022;0.745681
5.340;-1.026812;0.757488
5.350;-0.966292;0.774423
5.360;-0.900697;0.794015
5.370;-0.832332;0.814211
5.380;-0.763994;0.833900
5.390;-0.698351;0.852989
5.400;-0.637475;0.872095
5.410;-0.582636;0.892115
5.420;-0.534324;0.913872
5.430;-0.492413;0.937986
5.440;-0.456335;0.964955
5.450;-0.425220;0.995324
5.460;-0.398011;1.029777
5.470;-0.373627;1.069038
5.480;-0.351182;1.113586
5.490;-0.330219;1.163293
5.500;-0.310806;1.217128
5.510;-0.293386;1.273101
5.520;-0.278435;1.328490
5.530;-0.266055;1.380343
5.540;-0.255709;1.426090
5.550;-0.246218;1.464110
5.560;-0.236016;1.494074
5.570;-0.223593;1.516960
5.580;-0.207969;1.534719
5.590;-0.189028;1.549682
5.600;-0.167588;1.563926
5.610;-0.145185;1.578836
5.620;-0.123648;1.595023
5.630;-0.104629;1.612569
5.640;-0.089218;1.631454
5.650;-0.077739;1.651957
5.660;-0.069740;1.674868
5.670;-0.064143;1.701448
5.680;-0.059465;1.733145
5.690;-0.053967;1.771158
5.700;-0.045640;1.815945
5.710;-0.032060;1.866846
5.720;-0.010279;1.921956
5.730;0.022994;1.978356
5.740;0.070827;2.032705
5.750;0.135229;2.082045
5.760;0.216386;2.124555
5.770;0.312326;2.159964
5.780;0.419170;2.189449
5.790;0.531852;2.215113
5.800;0.645055;2.239283
5.810;0.754031;2.263913
5.820;0.855103;2.290221
5.830;0.945763;2.318583
5.840;1.024472;2.348600
5.850;1.090328;2.379220
5.860;1.142812;2.408857
5.870;1.181718;2.435434
5.880;1.207295;2.456376
5.890;1.220519;2.468688
5.900;1.223350;2.469233
5.910;1.218762;2.455293
5.920;1.210413;2.425322
5.930;1.201963;2.379582
5.940;1.196273;2.320379
5.950;1.194816;2.251712
5.960;1.197558;2.178495
5.970;1.203327;2.105603
5.980;1.210464;2.037055
5.990;1.217519;1.975467
6.000;1.223783;1.921856
6.010;1.229565;1.875800
6.020;1.236215;1.835862
6.030;1.245879;1.800155
6.040;1.261023;1.766858
6.050;1.283776;1.734577
6.060;1.315250;1.702440
6.070;1.355024;1.669955
6.080;1.401024;1.636673
6.090;1.449899;1.601812
6.100;1.497794;1.564056
6.110;1.541304;1.521679
6.120;1.578290;1.473004
6.130;1.608332;1.417067
6.140;1.632681;1.354220
6.150;1.653725;1.286426
6.160;1.674156;1.217102
6.170;1.696093;1.150509
6.180;1.720443;1.090904
6.190;1.746678;1.041716
6.200;1.773048;1.004963
6.210;1.797088;0.981010
6.220;1.816239;0.968634
6.230;1.828411;0.965364
6.240;1.832349;0.968058
6.250;1.827741;0.973674
6.260;1.815038;0.980131
6.270;1.795011;0.987058
6.280;1.768136;0.996102
6.290;1.734017;1.010530
6.300;1.691123;1.034047
6.310;1.637093;1.069102
6.320;1.569661;1.115214
6.330;1.487978;1.168024
6.340;1.393798;1.219629
6.350;1.291919;1.260414
6.360;1.189449;1.281961
6.370;1.093966;1.279955
6.380;1.011293;1.255738
6.390;0.943940;1.215670
6.400;0.890959;1.168633
6.410;0.849115;1.122984
6.420;0.814649;1.084348
6.430;0.784771;1.054870
6.440;0.758375;1.033730
6.450;0.735943;1.018324
6.460;0.718902;1.005541
6.470;0.708816;0.992801
6.480;0.706700;0.978645
6.490;0.712591;0.962816
6.500;0.725431;0.945883
6.510;0.743193;0.928632
6.520;0.763198;0.911492
6.530;0.782506;0.894212
6.540;0.798279;0.875897
6.550;0.808100;0.855342
6.560;0.810210;0.831515
6.570;0.803672;0.804012
6.580;0.788420;0.773318
6.590;0.765132;0.740756
6.600;0.734916;0.708104
6.610;0.698895;0.676948
6.620;0.657814;0.648006
6.630;0.611835;0.620666
6.640;0.560635;0.592970
6.650;0.503776;0.562116
6.660;0.441209;0.525328
6.670;0.373717;0.480851
6.680;0.303078;0.428699
6.690;0.231882;0.370891
6.700;0.163015;0.311047
6.710;0.099022;0.253372
6.720;0.041586;0.201374
6.730;-0.008693;0.156742
6.740;-0.052130;0.118846
6.750;-0.089506;0.085027
6.760;-0.121508;0.051555
6.770;-0.148324;0.014908
6.780;-0.169520;-0.027049
6.790;-0.184261;-0.074367
6.800;-0.191766;-0.125015
6.810;-0.191770;-0.175584
6.820;-0.184828;-0.222413
6.830;-0.172334;-0.262710
6.840;-0.156306;-0.295277
6.850;-0.139095;-0.320646
6.860;-0.123131;-0.340679
6.870;-0.110731;-0.357835
6.880;-0.103912;-0.374375
6.890;-0.104166;-0.391734
6.900;-0.112217;-0.410236
6.910;-0.127861;-0.429162
6.920;-0.149982;-0.447120
6.930;-0.176844;-0.462568
6.940;-0.206617;-0.474356
6.950;-0.238081;-0.482116
6.960;-0.271309;-0.486409
6.970;-0.308127;-0.488608
6.980;-0.352159;-0.490549
6.990;-0.408389;-0.494067
7.000;-0.482286;-0.500498
7.010;-0.578632;-0.510273
7.020;-0.700250;-0.522676
7.030;-0.846886;-0.535896
7.040;-1.014579;-0.547423
7.050;-1.195907;-0.554751
7.060;-1.381291;-0.556187
7.070;-1.561157;-0.551407
7.080;-1.728239;-0.541539
7.090;-1.879071;-0.528773
7.100;-2.014050;-0.515723
7.110;-2.136124;-0.504838
7.120;-2.248809;-0.498039
7.130;-2.354404;-0.496564
7.140;-2.453054;-0.500937
7.150;-2.542834;-0.510988
7.160;-2.620687;-0.525886
7.170;-2.683740;-0.544248
7.180;-2.730470;-0.564340
7.190;-2.761274;-0.584384
7.200;-2.778296;-0.602911
7.210;-2.784648;-0.619062
7.220;-2.783384;-0.632743
7.230;-2.776574;-0.644539
7.240;-2.764777;-0.655435
7.250;-2.747038;-0.666463
7.260;-2.721406;-0.678462
7.270;-2.685790;-0.692054
7.280;-2.638865;-0.707806
7.290;-2.580698;-0.726418
7.300;-2.512829;-0.748759
7.310;-2.437772;-0.775618
7.320;-2.358126;-0.807240
7.330;-2.275666;-0.842855
7.340;-2.190814;-0.880466
7.350;-2.102707;-0.917083
7.360;-2.009806;-0.949370
7.370;-1.910764;-0.974489
7.380;-1.805189;-0.990812
7.390;-1.694009;-0.998189
7.400;-1.579365;-0.997716
7.410;-1.464109;-0.991140
7.420;-1.351121;-0.980229
7.430;-1.242634;-0.966321
7.440;-1.139724;-0.950161
7.450;-1.042040;-0.931920
7.460;-0.947844;-0.911353
7.470;-0.854410;-0.888025
7.480;-0.758737;-0.861622
7.490;-0.658425;-0.832231
7.500;-0.552424;-0.800535
7.510;-0.441375;-0.767818
7.520;-0.327400;-0.735790
7.530;-0.213460;-0.706282
7.540;-0.102545;-0.680853
7.550;0.003001;-0.660386
7.560;0.101840;-0.644741
7.570;0.193646;-0.632586
7.580;0.278840;-0.621518
7.590;0.358172;-0.608485
7.600;0.432297;-0.590397
7.610;0.501423;-0.564737
7.620;0.565106;-0.529941
7.630;0.622209;-0.485469
7.640;0.671066;-0.431566
7.650;0.709865;-0.368884
7.660;0.737185;-0.298130
7.670;0.752539;-0.219875
7.680;0.756708;-0.134559
7.690;0.751693;-0.042701
7.700;0.740246;0.054828
7.710;0.725123;0.156589
7.720;0.708352;0.260602
7.730;0.690788;0.364608
7.740;0.672067;0.466494
7.750;0.650882;0.564705
7.760;0.625392;0.658490
7.770;0.593637;0.747851
7.780;0.553933;0.833232
7.790;0.505258;0.915090
7.800;0.447610;0.993562
7.810;0.382221;1.068411
7.820;0.311485;1.139239
7.830;0.238510;1.205853
7.840;0.166379;1.268582
7.850;0.097377;1.328363
7.860;0.032522;1.386542
7.870;-0.028406;1.444429
7.880;-0.086362;1.502808
7.890;-0.142286;1.561573
7.900;-0.196431;1.619689
7.910;-0.248012;1.675523
7.920;-0.295301;1.727466
7.930;-0.336089;1.774624
7.940;-0.368354;1.817309
7.950;-0.390917;1.857126
7.960;-0.403868;1.896602
7.970;-0.408661;1.938450
7.980;-0.407847;1.984775
7.990;-0.404571;2.036536
8.000;-0.401993;2.093457
8.010;-0.402813;2.154385
