Time[s];COPx[cm];COPy[cm]
0.010;-1.172439;-0.145630
0.020;-1.220252;-0.144724
0.030;-1.268573;-0.143532
0.040;-1.317581;-0.141902
0.050;-1.366930;-0.139945
0.060;-1.415689;-0.138055
0.070;-1.462452;-0.136835
0.080;-1.505574;-0.136911
0.090;-1.543502;-0.138691
0.100;-1.575117;-0.142170
0.110;-1.600009;-0.146881
0.120;-1.618567;-0.152027
0.130;-1.631838;-0.156724
0.140;-1.641181;-0.160227
0.150;-1.647818;-0.162044
0.160;-1.652446;-0.161934
0.170;-1.655056;-0.159812
0.180;-1.655002;-0.155636
0.190;-1.651288;-0.149334
0.200;-1.642979;-0.140790
0.210;-1.629574;-0.129896
0.220;-1.611227;-0.116646
0.230;-1.588711;-0.101200
0.240;-1.563173;-0.083867
0.250;-1.535775;-0.065016
0.260;-1.507346;-0.044976
0.270;-1.478161;-0.023985
0.280;-1.447889;-0.002186
0.290;-1.415729;0.020330
0.300;-1.380709;0.043465
0.310;-1.342025;0.067060
0.320;-1.299336;0.090893
0.330;-1.252943;0.114720
0.340;-1.203828;0.138341
0.350;-1.153528;0.161648
0.360;-1.103886;0.184591
0.370;-1.056684;0.207107
0.380;-1.013274;0.229052
0.390;-0.974284;0.250237
0.400;-0.939504;0.270540
0.410;-0.908012;0.290039
0.420;-0.878499;0.309059
0.430;-0.849717;0.328093
0.440;-0.820874;0.347622
0.450;-0.791879;0.367931
0.460;-0.763369;0.389013
0.470;-0.736497;0.410582
0.480;-0.712533;0.432216
0.490;-0.692428;0.453502
0.500;-0.676506;0.474129
0.510;-0.664417;0.493877
0.520;-0.655294;0.512546
0.530;-0.648029;0.529924
0.540;-0.641536;0.545789
0.550;-0.634949;0.559964
0.560;-0.627725;0.572373
0.570;-0.619649;0.583091
0.580;-0.610784;0.592362
0.590;-0.601404;0.600576
0.600;-0.591926;0.608201
0.610;-0.582825;0.615661
0.620;-0.574517;0.623192
0.630;-0.567247;0.630727
0.640;-0.561016;0.637889
0.650;-0.555599;0.644132
0.660;-0.550661;0.648958
0.670;-0.545922;0.652084
0.680;-0.541321;0.653472
0.690;-0.537113;0.653265
0.700;-0.533882;0.651729
0.710;-0.532465;0.649225
0.720;-0.533806;0.646157
0.730;-0.538748;0.642864
0.740;-0.547772;0.639490
0.750;-0.560791;0.635962
0.760;-0.577097;0.632122
0.770;-0.595542;0.627940
0.780;-0.614877;0.623646
0.790;-0.634123;0.619678
0.800;-0.652834;0.616506
0.810;-0.671170;0.614403
0.820;-0.689801;0.613299
0.830;-0.709644;0.612739
0.840;-0.731534;0.611978
0.850;-0.755909;0.610195
0.860;-0.782607;0.606771
0.870;-0.810854;0.601544
0.880;-0.839486;0.594907
0.890;-0.867304;0.587676
0.900;-0.893439;0.580786
0.910;-0.917567;0.574964
0.920;-0.939915;0.570522
0.930;-0.961074;0.567326
0.940;-0.981749;0.564911
0.950;-1.002564;0.562696
0.960;-1.024009;0.560152
0.970;-1.046463;0.556878
0.980;-1.070205;0.552584
0.990;-1.095349;0.547077
1.000;-1.121746;0.540305
1.010;-1.148957;0.532433
1.020;-1.176345;0.523867
1.030;-1.203256;0.515186
1.040;-1.229188;0.506984
1.050;-1.253898;0.499725
1.060;-1.277381;0.493630
1.070;-1.299796;0.488620
1.080;-1.321367;0.484292
1.090;-1.342286;0.479967
1.100;-1.362644;0.474850
1.110;-1.382336;0.468285
1.120;-1.400995;0.460017
1.130;-1.417979;0.450342
1.140;-1.432457;0.440046
1.150;-1.443613;0.430171
1.160;-1.450864;0.421692
1.170;-1.454018;0.415232
1.180;-1.453268;0.410943
1.190;-1.449052;0.408568
1.200;-1.441840;0.407632
1.210;-1.431940;0.407660
1.220;-1.419383;0.408355
1.230;-1.403919;0.409684
1.240;-1.385096;0.411825
1.250;-1.362387;0.415002
1.260;-1.335347;0.419273
1.270;-1.303766;0.424403
1.280;-1.267794;0.429883
1.290;-1.227999;0.435106
1.300;-1.185307;0.439554
1.310;-1.140856;0.442932
1.320;-1.095825;0.445184
1.330;-1.051287;0.446456
1.340;-1.008113;0.447050
1.350;-0.966921;0.447367
1.360;-0.928054;0.447841
1.370;-0.891599;0.448831
1.380;-0.857434;0.450491
1.390;-0.825285;0.452674
1.400;-0.794812;0.454898
1.410;-0.765691;0.456415
1.420;-0.737688;0.456366
1.430;-0.710699;0.454003
1.440;-0.684780;0.448933
1.450;-0.660166;0.441290
1.460;-0.637281;0.431730
1.470;-0.616682;0.421211
1.480;-0.598936;0.410648
1.490;-0.584456;0.400592
1.500;-0.573377;0.391138
1.510;-0.565517;0.382085
1.520;-0.560414;0.373242
1.530;-0.557405;0.364672
1.540;-0.555695;0.356699
1.550;-0.554402;0.349719
1.560;-0.552604;0.343969
1.570;-0.549423;0.339389
1.580;-0.544130;0.335655
1.590;-0.536273;0.332306
1.600;-0.525758;0.328892
1.610;-0.512847;0.325098
1.620;-0.498069;0.320825
1.630;-0.482080;0.316218
1.640;-0.465563;0.311607
1.650;-0.449188;0.307333
1.660;-0.433642;0.303538
1.670;-0.419647;0.300002
1.680;-0.407944;0.296136
1.690;-0.399210;0.291118
1.700;-0.393923;0.284116
1.710;-0.392198;0.274559
1.720;-0.393681;0.262361
1.730;-0.397529;0.248081
1.740;-0.402518;0.232896
1.750;-0.407271;0.218366
1.760;-0.410533;0.205997
1.770;-0.411442;0.196779
1.780;-0.409690;0.190888
1.790;-0.405531;0.187707
1.800;-0.399643;0.186111
1.810;-0.392902;0.184885
1.820;-0.386146;0.183057
1.830;-0.379995;0.180082
1.840;-0.374751;0.175840
1.850;-0.370399;0.170537
1.860;-0.366709;0.164549
1.870;-0.363368;0.158284
1.880;-0.360123;0.152054
1.890;-0.356874;0.146000
1.900;-0.353748;0.140100
1.910;-0.351126;0.134267
1.920;-0.349635;0.128512
1.930;-0.350071;0.123037
1.940;-0.353244;0.118186
1.950;-0.359757;0.114230
1.960;-0.369797;0.111126
1.970;-0.383016;0.108398
1.980;-0.398579;0.105241
1.990;-0.415361;0.100789
2.000;-0.432246;0.094423
2.010;-0.448420;0.085986
2.020;-0.463563;0.075840
2.030;-0.477895;0.064754
2.040;-0.492055;0.053677
2.050;-0.506858;0.043474
2.060;-0.522989;0.034691
2.070;-0.540751;0.027439
2.080;-0.559937;0.021429
2.090;-0.579865;0.016172
2.100;-0.599563;0.011258
2.110;-0.618036;0.006593
2.120;-0.634520;0.002462
2.130;-0.648650;-0.000606
2.140;-0.660462;-0.002079
2.150;-0.670253;-0.001668
2.160;-0.678348;0.000533
2.170;-0.684879;0.004038
2.180;-0.689673;0.008097
2.190;-0.692296;0.011944
2.200;-0.692250;0.015056
2.210;-0.689215;0.017312
2.220;-0.683264;0.018984
2.230;-0.674937;0.020542
2.240;-0.665175;0.022396
2.250;-0.655094;0.024679
2.260;-0.645703;0.027198
2.270;-0.637645;0.029556
2.280;-0.631097;0.031366
2.290;-0.625820;0.032436
2.300;-0.621316;0.032854
2.310;-0.617001;0.032968
2.320;-0.612299;0.033280
2.330;-0.606685;0.034311
2.340;-0.599713;0.036472
2.350;-0.591112;0.039974
2.360;-0.580895;0.044823
2.370;-0.569408;0.050867
2.380;-0.557251;0.057880
2.390;-0.545124;0.065630
2.400;-0.533686;0.073920
2.410;-0.523467;0.082602
2.420;-0.514812;0.091568
2.430;-0.507825;0.100722
2.440;-0.502302;0.109940
2.450;-0.497717;0.119057
2.460;-0.493300;0.127885
2.470;-0.488190;0.136246
2.480;-0.481628;0.144010
2.490;-0.473112;0.151114
2.500;-0.462484;0.157561
2.510;-0.449935;0.163417
2.520;-0.435948;0.168847
2.530;-0.421168;0.174128
2.540;-0.406202;0.179621
2.550;-0.391422;0.185638
2.560;-0.376868;0.192273
2.570;-0.362306;0.199260
2.580;-0.347420;0.206001
2.590;-0.332032;0.211769
2.600;-0.316238;0.216039
2.610;-0.300405;0.218754
2.620;-0.285060;0.220413
2.630;-0.270737;0.221929
2.640;-0.257848;0.224325
2.650;-0.246614;0.228387
2.660;-0.237045;0.234424
2.670;-0.228976;0.242229
2.680;-0.222161;0.251225
2.690;-0.216406;0.260699
2.700;-0.211694;0.269984
2.710;-0.208232;0.278530
2.720;-0.206397;0.285873
2.730;-0.206572;0.291597
2.740;-0.208990;0.295355
2.750;-0.213668;0.296956
2.760;-0.220463;0.296470
2.770;-0.229199;0.294304
2.780;-0.239765;0.291187
2.790;-0.252121;0.288060
2.800;-0.266216;0.285857
2.810;-0.281875;0.285235
2.820;-0.298759;0.286341
2.830;-0.316450;0.288743
2.840;-0.334622;0.291541
2.850;-0.353201;0.293661
2.860;-0.372431;0.294193
2.870;-0.392768;0.292651
2.880;-0.414654;0.289052
2.890;-0.438272;0.283808
2.900;-0.463421;0.277496
2.910;-0.489565;0.270617
2.920;-0.516010;0.263443
2.930;-0.542103;0.255982
2.940;-0.567353;0.248055
2.950;-0.591462;0.239473
2.960;-0.614287;0.230230
2.970;-0.635771;0.220633
2.980;-0.655870;0.211270
2.990;-0.674523;0.202814
3.000;-0.691673;0.195746
3.010;-0.707326;0.190107
3.020;-0.721648;0.185431
3.030;-0.735002;0.180848
3.040;-0.747895;0.175309
3.050;-0.760840;0.167850
3.060;-0.774184;0.157841
3.070;-0.787995;0.145197
3.080;-0.802085;0.130471
3.090;-0.816137;0.114741
3.100;-0.829888;0.099306
3.110;-0.843246;0.085294
3.120;-0.856305;0.073359
3.130;-0.869247;0.063590
3.140;-0.882225;0.055653
3.150;-0.895285;0.049047
3.160;-0.908355;0.043325
3.170;-0.921295;0.038180
3.180;-0.933963;0.033407
3.190;-0.946247;0.028836
3.200;-0.958068;0.024281
3.210;-0.969348;0.019527
3.220;-0.980012;0.014315
3.230;-0.990016;0.008376
3.240;-0.999377;0.001537
3.250;-1.008181;-0.006150
3.260;-1.016521;-0.014329
3.270;-1.024398;-0.022427
3.280;-1.031634;-0.029863
3.290;-1.037911;-0.036270
3.300;-1.042916;-0.041604
3.310;-1.046549;-0.046106
3.320;-1.049041;-0.050130
3.330;-1.050904;-0.053946
3.340;-1.052713;-0.057602
3.350;-1.054833;-0.060905
3.360;-1.057224;-0.063524
3.370;-1.059450;-0.065145
3.380;-1.060896;-0.065599
3.390;-1.061087;-0.064887
3.400;-1.059955;-0.063117
3.410;-1.057894;-0.060394
3.420;-1.055610;-0.056758
3.430;-1.053826;-0.052203
3.440;-1.053007;-0.046768
3.450;-1.053209;-0.040623
3.460;-1.054122;-0.034076
3.470;-1.055241;-0.027488
3.480;-1.056077;-0.021127
3.490;-1.056289;-0.015044
3.500;-1.055680;-0.009023
3.510;-1.054094;-0.002627
3.520;-1.051288;0.004681
3.530;-1.046850;0.013370
3.540;-1.040213;0.023680
3.550;-1.030762;0.035531
3.560;-1.018028;0.048552
3.570;-1.001910;0.062221
3.580;-0.982825;0.076051
3.590;-0.961674;0.089721
3.600;-0.939623;0.103095
3.610;-0.917752;0.116150
3.620;-0.896743;0.128879
3.630;-0.876719;0.141265
3.640;-0.857261;0.153348
3.650;-0.837554;0.165314
3.660;-0.816582;0.177520
3.670;-0.793335;0.190392
3.680;-0.767011;0.204234
3.690;-0.737218;0.219018
3.700;-0.704119;0.234262
3.710;-0.668440;0.249070
3.720;-0.631309;0.262354
3.730;-0.593950;0.273164
3.740;-0.557372;0.281007
3.750;-0.522178;0.285990
3.760;-0.488534;0.288728
3.770;-0.456287;0.290067
3.780;-0.425138;0.290781
3.790;-0.394816;0.291396
3.800;-0.365214;0.292196
3.810;-0.336464;0.293338
3.820;-0.308961;0.294960
3.830;-0.283328;0.297216
3.840;-0.260302;0.300242
3.850;-0.240548;0.304086
3.860;-0.224453;0.308669
3.870;-0.211968;0.313793
3.880;-0.202566;0.319178
3.890;-0.195319;0.324516
3.900;-0.189105;0.329527
3.910;-0.182899;0.333996
3.920;-0.176056;0.337793
3.930;-0.168496;0.340862
3.940;-0.160698;0.343193
3.950;-0.153494;0.344775
3.960;-0.147698;0.345589
3.970;-0.143739;0.345659
3.980;-0.141476;0.345160
3.990;-0.140287;0.344506
4.000;-0.139364;0.344299
4.010;-0.138035;0.345116
4.020;-0.135951;0.347217
4.030;-0.133081;0.350367
4.040;-0.129563;0.353897
4.050;-0.125499;0.356947
4.060;-0.120813;0.358750
4.070;-0.115244;0.358794
4.080;-0.108477;0.356858
4.090;-0.100339;0.352968
4.100;-0.090951;0.347353
4.110;-0.080744;0.340400
4.120;-0.070353;0.332580
4.130;-0.060449;0.324322
4.140;-0.051587;0.315877
4.150;-0.044101;0.307249
4.160;-0.038093;0.298261
4.170;-0.033508;0.288705
4.180;-0.030278;0.278486
4.190;-0.028469;0.267665
4.200;-0.028321;0.256389
4.210;-0.030161;0.244775
4.220;-0.034225;0.232818
4.230;-0.040503;0.220404
4.240;-0.048703;0.207411
4.250;-0.058335;0.193862
4.260;-0.068866;0.180004
4.270;-0.079876;0.166251
4.280;-0.091156;0.153003
4.290;-0.102736;0.140453
4.300;-0.114852;0.128484
4.310;-0.127834;0.116718
4.320;-0.141978;0.104668
4.330;-0.157445;0.091915
4.340;-0.174256;0.078235
4.350;-0.192361;0.063650
4.360;-0.211694;0.048423
4.370;-0.232171;0.032991
4.380;-0.253640;0.017837
4.390;-0.275836;0.003326
4.400;-0.298399;-0.010417
4.410;-0.320925;-0.023523
4.420;-0.343031;-0.036316
4.430;-0.364382;-0.049237
4.440;-0.384716;-0.062796
4.450;-0.403885;-0.077529
4.460;-0.421930;-0.093902
4.470;-0.439157;-0.112143
4.480;-0.456108;-0.132101
4.490;-0.473439;-0.153234
4.500;-0.491704;-0.174786
4.510;-0.511167;-0.196081
4.520;-0.531693;-0.216773
4.530;-0.552749;-0.236941
4.540;-0.573501;-0.256986
4.550;-0.592979;-0.277412
4.560;-0.610296;-0.298589
4.570;-0.624864;-0.320612
4.580;-0.636527;-0.343243
4.590;-0.645552;-0.365947
4.600;-0.652503;-0.387983
4.610;-0.658024;-0.408545
4.620;-0.662642;-0.426926
4.630;-0.666594;-0.442659
4.640;-0.669721;-0.455594
4.650;-0.671477;-0.465899
4.660;-0.671057;-0.474037
4.670;-0.667652;-0.480713
4.680;-0.660711;-0.486786
4.690;-0.650097;-0.493112
4.700;-0.636102;-0.500340
4.710;-0.619353;-0.508725
4.720;-0.600680;-0.518067
4.730;-0.580983;-0.527811
4.740;-0.561100;-0.537279
4.750;-0.541695;-0.545903
4.760;-0.523165;-0.553376
4.770;-0.505602;-0.559665
4.780;-0.488810;-0.564913
4.790;-0.472419;-0.569338
4.800;-0.456030;-0.573162
4.810;-0.439313;-0.576589
4.820;-0.422025;-0.579790
4.830;-0.403947;-0.582871
4.840;-0.384860;-0.585816
4.850;-0.364591;-0.588443
4.860;-0.343090;-0.590413
4.870;-0.320469;-0.591304
4.880;-0.296975;-0.590743
4.890;-0.272942;-0.588537
4.900;-0.248763;-0.584742
4.910;-0.224902;-0.579634
4.920;-0.201926;-0.573579
4.930;-0.180506;-0.566858
4.940;-0.161373;-0.559525
4.950;-0.145196;-0.551368
4.960;-0.132367;-0.541993
4.970;-0.122762;-0.530974
4.980;-0.115595;-0.517995
4.990;-0.109514;-0.502942
5.000;-0.102964;-0.485945
5.010;-0.094735;-0.467372
5.020;-0.084418;-0.447797
5.030;-0.072561;-0.427904
5.040;-0.060424;-0.408325
5.050;-0.049477;-0.389439
5.060;-0.040908;-0.371260
5.070;-0.035344;-0.353494
5.080;-0.032845;-0.335768
5.090;-0.033072;-0.317874
5.100;-0.035508;-0.299885
5.110;-0.039646;-0.282085
5.120;-0.045101;-0.264829
5.130;-0.051650;-0.248445
5.140;-0.059210;-0.233212
5.150;-0.067781;-0.219350
5.160;-0.077385;-0.206998
5.170;-0.088028;-0.196174
5.180;-0.099683;-0.186790
5.190;-0.112300;-0.178675
5.200;-0.125826;-0.171604
5.210;-0.140230;-0.165319
5.220;-0.155537;-0.159537
5.230;-0.171862;-0.153971
5.240;-0.189403;-0.148337
5.250;-0.208364;-0.142364
5.260;-0.228820;-0.135801
5.270;-0.250602;-0.128464
5.280;-0.273274;-0.120330
5.290;-0.296248;-0.111658
5.300;-0.318988;-0.103063
5.310;-0.341182;-0.095480
5.320;-0.362789;-0.089961
5.330;-0.383923;-0.087337
5.340;-0.404649;-0.087843
5.350;-0.424858;-0.090881
5.360;-0.444301;-0.095085
5.370;-0.462737;-0.098708
5.380;-0.480069;-0.100207
5.390;-0.496374;-0.098740
5.400;-0.511840;-0.094355
5.410;-0.526661;-0.087784
5.420;-0.540959;-0.079990
5.430;-0.554745;-0.071763
5.440;-0.567915;-0.063549
5.450;-0.580263;-0.055568
5.460;-0.591535;-0.048032
5.470;-0.601549;-0.041260
5.480;-0.610326;-0.035561
5.490;-0.618152;-0.031002
5.500;-0.625488;-0.027243
5.510;-0.632743;-0.023556
5.520;-0.640031;-0.019041
5.530;-0.647075;-0.012950
5.540;-0.653324;-0.004985
5.550;-0.658229;0.004548
5.560;-0.661502;0.014868
5.570;-0.663245;0.025049
5.580;-0.663922;0.034411
5.590;-0.664202;0.042747
5.600;-0.664719;0.050320
5.610;-0.665822;0.057686
5.620;-0.667369;0.065470
5.630;-0.668682;0.074187
5.640;-0.668714;0.084165
5.650;-0.666383;0.095548
5.660;-0.660935;0.108340
5.670;-0.652163;0.122448
5.680;-0.640417;0.137679
5.690;-0.626431;0.153721
5.700;-0.611099;0.170156
5.710;-0.595296;0.186548
5.720;-0.579812;0.202550
5.730;-0.565342;0.217982
5.740;-0.552481;0.232800
5.750;-0.541643;0.247003
5.760;-0.532948;0.260539
5.770;-0.526128;0.273253
5.780;-0.520574;0.284887
5.790;-0.515544;0.295111
5.800;-0.510469;0.303607
5.810;-0.505200;0.310193
5.820;-0.500062;0.314935
5.830;-0.495691;0.318199
5.840;-0.492730;0.320590
5.850;-0.491541;0.322797
5.860;-0.492048;0.325423
5.870;-0.493785;0.328853
5.880;-0.496095;0.333192
5.890;-0.498408;0.338273
5.900;-0.500464;0.343715
5.910;-0.502429;0.349015
5.920;-0.504874;0.353644
5.930;-0.508660;0.357128
5.940;-0.514759;0.359115
5.950;-0.524063;0.359441
5.960;-0.537176;0.358179
5.970;-0.554243;0.355638
5.980;-0.574864;0.352273
5.990;-0.598169;0.348540
6.000;-0.623060;0.344719
6.010;-0.648527;0.340790
6.020;-0.673927;0.336415
6.030;-0.699113;0.331065
6.040;-0.724392;0.324268
6.050;-0.750393;0.315849
6.060;-0.777892;0.306071
6.070;-0.807671;0.295564
6.080;-0.840404;0.285095
6.090;-0.876554;0.275299
6.100;-0.916302;0.266495
6.110;-0.959489;0.258663
6.120;-1.005611;0.251558
6.130;-1.053868;0.244910
6.140;-1.103276;0.238618
6.150;-1.152816;0.232837
6.160;-1.201574;0.227926
6.170;-1.248850;0.224275
6.180;-1.294223;0.222111
6.190;-1.337567;0.221369
6.200;-1.379036;0.221671
6.210;-1.419006;0.222439
6.220;-1.458002;0.223074
6.230;-1.496580;0.223150
6.240;-1.535197;0.222548
6.250;-1.574125;0.221526
6.260;-1.613434;0.220670
6.270;-1.653053;0.220760
6.280;-1.692785;0.222552
6.290;-1.732241;0.226555
6.300;-1.770711;0.232821
6.310;-1.807099;0.240834
6.320;-1.840001;0.249584
6.330;-1.867882;0.257864
6.340;-1.889316;0.264676
6.350;-1.903250;0.269560
6.360;-1.909278;0.272681
6.370;-1.907866;0.274674
6.380;-1.900406;0.276357
6.390;-1.888986;0.278488
6.400;-1.875906;0.281606
6.410;-1.863092;0.285975
6.420;-1.851604;0.291589
6.430;-1.841457;0.298214
6.440;-1.831779;0.305467
6.450;-1.821244;0.312895
6.460;-1.808573;0.320075
6.470;-1.792904;0.326700
6.480;-1.773926;0.332669
6.490;-1.751797;0.338155
6.500;-1.726943;0.343596
6.510;-1.699832;0.349597
6.520;-1.670764;0.356731
6.530;-1.639722;0.365279
6.540;-1.606328;0.374998
6.550;-1.569982;0.385021
6.560;-1.530132;0.393992
6.570;-1.486592;0.400434
6.580;-1.439725;0.403274
6.590;-1.390392;0.402279
6.600;-1.339706;0.398215
6.610;-1.288692;0.392614
6.620;-1.238031;0.387245
6.630;-1.187966;0.383524
6.640;-1.138394;0.382126
6.650;-1.089067;0.382907
6.660;-1.039852;0.385117
6.670;-0.990974;0.387754
6.680;-0.943143;0.389942
6.690;-0.897522;0.391223
6.700;-0.855534;0.391678
6.710;-0.818584;0.391812
6.720;-0.787783;0.392247
6.730;-0.763758;0.393357
6.740;-0.746573;0.395028
6.750;-0.735749;0.396689
6.760;-0.730394;0.397569
6.770;-0.729375;0.397036
6.780;-0.731544;0.394845
6.790;-0.735950;0.391210
6.800;-0.741998;0.386709
6.810;-0.749484;0.382110
6.820;-0.758500;0.378160
6.830;-0.769224;0.375379
6.840;-0.781729;0.373919
6.850;-0.795902;0.373539
6.860;-0.811508;0.373716
6.870;-0.828349;0.373832
6.880;-0.846388;0.373354
6.890;-0.865786;0.371995
6.900;-0.886817;0.369819
6.910;-0.909715;0.367276
6.920;-0.934489;0.365097
6.930;-0.960778;0.364050
6.940;-0.987832;0.364635
6.950;-1.014676;0.366872
6.960;-1.040389;0.370302
6.970;-1.064380;0.374222
6.980;-1.086504;0.378027
6.990;-1.106965;0.381452
7.000;-1.126075;0.384596
7.010;-1.144006;0.387761
7.020;-1.160661;0.391248
7.030;-1.175717;0.395218
7.040;-1.188780;0.399655
7.050;-1.199576;0.404374
7.060;-1.208085;0.409067
7.070;-1.214576;0.413348
7.080;-1.219583;0.416831
7.090;-1.223853;0.419203
7.100;-1.228273;0.420289
7.110;-1.233741;0.420090
7.120;-1.240961;0.418800
7.130;-1.250207;0.416800
7.140;-1.261194;0.414632
7.150;-1.273118;0.412920
7.160;-1.284876;0.412264
7.170;-1.295371;0.413117
7.180;-1.303758;0.415689
7.190;-1.309556;0.419918
7.200;-1.312604;0.425485
7.210;-1.312935;0.431873
7.220;-1.310660;0.438453
7.230;-1.305933;0.444606
7.240;-1.298998;0.449869
7.250;-1.290250;0.454081
7.260;-1.280259;0.457425
7.270;-1.269738;0.460331
7.280;-1.259471;0.463264
7.290;-1.250229;0.466483
7.300;-1.242682;0.469910
7.310;-1.237298;0.473145
7.320;-1.234247;0.475601
7.330;-1.233356;0.476676
7.340;-1.234144;0.475912
7.350;-1.235934;0.473142
7.360;-1.237998;0.468589
7.370;-1.239688;0.462865
7.380;-1.240556;0.456828
7.390;-1.240445;0.451327
7.400;-1.239530;0.446949
7.410;-1.238259;0.443857
7.420;-1.237207;0.441793
7.430;-1.236887;0.440229
7.440;-1.237594;0.438628
7.450;-1.239346;0.436728
7.460;-1.241918;0.434687
7.470;-1.244941;0.433037
7.480;-1.248019;0.432441
7.490;-1.250828;0.433389
7.500;-1.253213;0.435965
7.510;-1.255228;0.439793
7.520;-1.257146;0.444133
7.530;-1.259377;0.448106
7.540;-1.262326;0.450939
7.550;-1.266218;0.452188
7.560;-1.270969;0.451858
7.570;-1.276167;0.450364
7.580;-1.281174;0.448327
7.590;-1.285318;0.446298
7.600;-1.288125;0.444552
7.610;-1.289508;0.443059
7.620;-1.289847;0.441628
7.630;-1.289911;0.440092
7.640;-1.290624;0.438433
7.650;-1.292765;0.436768
7.660;-1.296700;0.435251
7.670;-1.302223;0.433955
7.680;-1.308581;0.432812
7.690;-1.314690;0.431658
7.700;-1.319487;0.430359
7.710;-1.322243;0.428919
7.720;-1.322695;0.427497
7.730;-1.320953;0.426310
7.740;-1.317307;0.425494
7.750;-1.312080;0.425031
7.760;-1.305583;0.424794
7.770;-1.298142;0.424646
7.780;-1.290125;0.424531
7.790;-1.281932;0.424509
7.800;-1.273928;0.424769
7.810;-1.266350;0.425617
7.820;-1.259208;0.427412
7.830;-1.252270;0.430448
7.840;-1.245174;0.434812
7.850;-1.237606;0.440297
7.860;-1.229460;0.446417
7.870;-1.220879;0.452543
7.880;-1.212152;0.458080
7.890;-1.203553;0.462637
7.900;-1.195188;0.466107
7.910;-1.186942;0.468665
7.920;-1.178489;0.470677
