Time[s];COPx[cm];COPy[cm]
0.010;-2.469942;1.409748
0.020;-2.466811;1.400559
0.030;-2.463172;1.391865
0.040;-2.458427;1.384035
0.050;-2.452022;1.377290
0.060;-2.443580;1.371709
0.070;-2.433061;1.367258
0.080;-2.420872;1.363839
0.090;-2.407853;1.361318
0.100;-2.395151;1.359526
0.110;-2.384049;1.358210
0.120;-2.375810;1.356957
0.130;-2.371535;1.355188
0.140;-2.372029;1.352228
0.150;-2.377628;1.347471
0.160;-2.388090;1.340577
0.170;-2.402626;1.331644
0.180;-2.420147;1.321282
0.190;-2.439621;1.310526
0.200;-2.460369;1.300580
0.210;-2.482145;1.292469
0.220;-2.505015;1.286761
0.230;-2.529132;1.283465
0.240;-2.554538;1.282149
0.250;-2.581061;1.282196
0.260;-2.608317;1.283057
0.270;-2.635785;1.284402
0.280;-2.662910;1.286104
0.290;-2.689208;1.288097
0.300;-2.714376;1.290215
0.310;-2.738389;1.292100
0.320;-2.761574;1.293248
0.330;-2.784603;1.293156
0.340;-2.808389;1.291484
0.350;-2.833866;1.288150
0.360;-2.861736;1.283321
0.370;-2.892260;1.277293
0.380;-2.925179;1.270314
0.390;-2.959805;1.262411
0.400;-2.995265;1.253292
0.410;-3.030813;1.242398
0.420;-3.066103;1.229090
0.430;-3.101287;1.212905
0.440;-3.136889;1.193771
0.450;-3.173484;1.172054
0.460;-3.211335;1.148430
0.470;-3.250142;1.123632
0.480;-3.289003;1.098171
0.490;-3.326577;1.072160
0.500;-3.361390;1.045287
0.510;-3.392151;1.016979
0.520;-3.418007;0.986710
0.530;-3.438649;0.954348
0.540;-3.454242;0.920429
0.550;-3.465200;0.886220
0.560;-3.471927;0.853530
0.570;-3.474640;0.824293
0.580;-3.473349;0.800105
0.590;-3.467978;0.781840
0.600;-3.458484;0.769480
0.610;-3.444905;0.762184
0.620;-3.427322;0.758561
0.630;-3.405787;0.757025
0.640;-3.380278;0.756168
0.650;-3.350702;0.755046
0.660;-3.316946;0.753364
0.670;-3.278931;0.751499
0.680;-3.236668;0.750334
0.690;-3.190314;0.750922
0.700;-3.140241;0.754124
0.710;-3.087070;0.760334
0.720;-3.031664;0.769415
0.730;-2.975083;0.780806
0.740;-2.918542;0.793734
0.750;-2.863390;0.807412
0.760;-2.811073;0.821148
0.770;-2.763061;0.834357
0.780;-2.720722;0.846513
0.790;-2.685172;0.857104
0.800;-2.657136;0.865613
0.810;-2.636858;0.871546
0.820;-2.624079;0.874532
0.830;-2.618104;0.874442
0.840;-2.617947;0.871459
0.850;-2.622526;0.866029
0.860;-2.630862;0.858723
0.870;-2.642223;0.850065
0.880;-2.656170;0.840394
0.890;-2.672496;0.829802
0.900;-2.691104;0.818175
0.910;-2.711912;0.805302
0.920;-2.734796;0.791023
0.930;-2.759607;0.775321
0.940;-2.786202;0.758333
0.950;-2.814461;0.740289
0.960;-2.844266;0.721425
0.970;-2.875442;0.701934
0.980;-2.907681;0.681983
0.990;-2.940451;0.661783
1.000;-2.972949;0.641691
1.010;-3.004096;0.622269
1.020;-3.032632;0.604251
1.030;-3.057313;0.588402
1.040;-3.077185;0.575295
1.050;-3.091831;0.565104
1.060;-3.101480;0.557485
1.070;-3.106942;0.551624
1.080;-3.109409;0.546456
1.090;-3.110239;0.540986
1.100;-3.110786;0.534613
1.110;-3.112274;0.527308
1.120;-3.115687;0.519573
1.130;-3.121645;0.512159
1.140;-3.130271;0.505676
1.150;-3.141142;0.500275
1.160;-3.153373;0.495530
1.170;-3.165872;0.490572
1.180;-3.177686;0.484410
1.190;-3.188308;0.476271
1.200;-3.197815;0.465846
1.210;-3.206769;0.453351
1.220;-3.215900;0.439458
1.230;-3.225752;0.425138
1.240;-3.236455;0.411465
1.250;-3.247709;0.399393
1.260;-3.258922;0.389551
1.270;-3.269357;0.382113
1.280;-3.278221;0.376794
1.290;-3.284658;0.372967
1.300;-3.287766;0.369806
1.310;-3.286697;0.366384
1.320;-3.280871;0.361724
1.330;-3.270212;0.354861
1.340;-3.255289;0.344964
1.350;-3.237281;0.331530
1.360;-3.217770;0.314594
1.370;-3.198442;0.294832
1.380;-3.180800;0.273457
1.390;-3.165928;0.251919
1.400;-3.154349;0.231499
1.410;-3.145984;0.212965
1.420;-3.140265;0.196390
1.430;-3.136360;0.181160
1.440;-3.133462;0.166195
1.450;-3.131013;0.150328
1.460;-3.128757;0.132735
1.470;-3.126603;0.113223
1.480;-3.124424;0.092271
1.490;-3.121930;0.070854
1.500;-3.118733;0.050154
1.510;-3.114573;0.031309
1.520;-3.109533;0.015237
1.530;-3.104104;0.002550
1.540;-3.099022;-0.006466
1.550;-3.094944;-0.011828
1.560;-3.092128;-0.013799
1.570;-3.090291;-0.012795
1.580;-3.088719;-0.009268
1.590;-3.086567;-0.003576
1.600;-3.083174;0.004082
1.610;-3.078216;0.013632
1.620;-3.071638;0.025024
1.630;-3.063427;0.038127
1.640;-3.053409;0.052725
1.650;-3.041206;0.068583
1.660;-3.026413;0.085553
1.670;-3.008884;0.103614
1.680;-2.988973;0.122829
1.690;-2.967591;0.143224
1.700;-2.946019;0.164651
1.710;-2.925543;0.186711
1.720;-2.907076;0.208789
1.730;-2.890900;0.230213
1.740;-2.876622;0.250450
1.750;-2.863341;0.269263
1.760;-2.849938;0.286717
1.770;-2.835405;0.303037
1.780;-2.819106;0.318387
1.790;-2.800910;0.332661
1.800;-2.781213;0.345363
1.810;-2.760858;0.355648
1.820;-2.740987;0.362512
1.830;-2.722839;0.365087
1.840;-2.707501;0.362912
1.850;-2.695642;0.356062
1.860;-2.687303;0.345068
1.870;-2.681850;0.330721
1.880;-2.678115;0.313865
1.890;-2.674738;0.295247
1.900;-2.670572;0.275436
1.910;-2.665039;0.254807
1.920;-2.658292;0.233591
1.930;-2.651137;0.211989
1.940;-2.644748;0.190282
1.950;-2.640298;0.168873
1.960;-2.638652;0.148232
1.970;-2.640220;0.128808
1.980;-2.644966;0.110958
1.990;-2.652533;0.094945
2.000;-2.662410;0.080969
2.010;-2.674080;0.069206
2.020;-2.687141;0.059811
2.030;-2.701359;0.052865
2.040;-2.716666;0.048287
2.050;-2.733096;0.045755
2.060;-2.750728;0.044705
2.070;-2.769652;0.044461
2.080;-2.789971;0.044437
2.090;-2.811817;0.044342
2.100;-2.835360;0.044278
2.110;-2.860812;0.044671
2.120;-2.888419;0.046058
2.130;-2.918436;0.048815
2.140;-2.951047;0.052940
2.150;-2.986234;0.058004
2.160;-3.023654;0.063321
2.170;-3.062591;0.068250
2.180;-3.102037;0.072480
2.190;-3.140868;0.076174
2.200;-3.178060;0.079888
2.210;-3.212879;0.084341
2.220;-3.245006;0.090156
2.230;-3.274559;0.097686
2.240;-3.302002;0.106969
2.250;-3.327938;0.117793
2.260;-3.352858;0.129792
2.270;-3.376973;0.142494
2.280;-3.400178;0.155304
2.290;-3.422118;0.167443
2.300;-3.442276;0.177933
2.310;-3.460038;0.185690
2.320;-3.474733;0.189739
2.330;-3.485711;0.189485
2.340;-3.492471;0.184944
2.350;-3.494806;0.176848
2.360;-3.492926;0.166541
2.370;-3.487465;0.155659
2.380;-3.479385;0.145683
2.390;-3.469779;0.137548
2.400;-3.459636;0.131475
2.410;-3.449647;0.127100
2.420;-3.440082;0.123823
2.430;-3.430807;0.121169
2.440;-3.421431;0.118987
2.450;-3.411509;0.117389
2.460;-3.400702;0.116499
2.470;-3.388824;0.116217
2.480;-3.375820;0.116156
2.490;-3.361736;0.115794
2.500;-3.346734;0.114740
2.510;-3.331135;0.112939
2.520;-3.315429;0.110699
2.530;-3.300218;0.108541
2.540;-3.286083;0.106973
2.550;-3.273449;0.106297
2.560;-3.262534;0.106536
2.570;-3.253396;0.107474
2.580;-3.246054;0.108775
2.590;-3.240611;0.110126
2.600;-3.237301;0.111343
2.610;-3.236464;0.112386
2.620;-3.238455;0.113302
2.630;-3.243538;0.114126
2.640;-3.251782;0.114850
2.650;-3.262982;0.115496
2.660;-3.276630;0.116301
2.670;-3.291934;0.117848
2.680;-3.307902;0.121027
2.690;-3.323471;0.126782
2.700;-3.337697;0.135767
2.710;-3.349979;0.148072
2.720;-3.360282;0.163127
2.730;-3.369251;0.179843
2.740;-3.378107;0.196882
2.750;-3.388330;0.212959
2.760;-3.401233;0.227065
2.770;-3.417603;0.238603
2.780;-3.437571;0.247478
2.790;-3.460721;0.254103
2.800;-3.486346;0.259289
2.810;-3.513718;0.263987
2.820;-3.542243;0.268966
2.830;-3.571464;0.274570
2.840;-3.600957;0.280663
2.850;-3.630153;0.286765
2.860;-3.658185;0.292316
2.870;-3.683835;0.296947
2.880;-3.705689;0.300639
2.890;-3.722490;0.303711
2.900;-3.733595;0.306631
2.910;-3.739314;0.309773
2.920;-3.740943;0.313209
2.930;-3.740414;0.316670
2.940;-3.739679;0.319674
2.950;-3.740073;0.321818
2.960;-3.741930;0.323079
2.970;-3.744617;0.323946
2.980;-3.746934;0.325301
2.990;-3.747678;0.328074
3.000;-3.746106;0.332842
3.010;-3.742158;0.339561
3.020;-3.736399;0.347555
3.030;-3.729762;0.355795
3.040;-3.723226;0.363381
3.050;-3.717544;0.369992
3.060;-3.713058;0.376102
3.070;-3.709597;0.382827
3.080;-3.706442;0.391506
3.090;-3.702358;0.403219
3.100;-3.695773;0.418428
3.110;-3.685090;0.436806
3.120;-3.669084;0.457272
3.130;-3.647226;0.478193
3.140;-3.619837;0.497760
3.150;-3.588001;0.514448
3.160;-3.553278;0.527434
3.170;-3.517314;0.536782
3.180;-3.481456;0.543330
3.190;-3.446477;0.548336
3.200;-3.412498;0.553063
3.210;-3.379117;0.558442
3.220;-3.345680;0.564854
3.230;-3.311561;0.572059
3.240;-3.276331;0.579253
3.250;-3.239844;0.585266
3.260;-3.202270;0.588864
3.270;-3.164132;0.589074
3.280;-3.126295;0.585427
3.290;-3.089877;0.578047
3.300;-3.056096;0.567548
3.310;-3.026113;0.554823
3.320;-3.000916;0.540760
3.330;-2.981237;0.526009
3.340;-2.967500;0.510853
3.350;-2.959798;0.495232
3.360;-2.957944;0.478902
3.370;-2.961573;0.461664
3.380;-2.970254;0.443574
3.390;-2.983543;0.425041
3.400;-3.000933;0.406771
3.410;-3.021732;0.389601
3.420;-3.044947;0.374291
3.430;-3.069319;0.361377
3.440;-3.093544;0.351097
3.450;-3.116617;0.343396
3.460;-3.138133;0.337956
3.470;-3.158377;0.334267
3.480;-3.178183;0.331695
3.490;-3.198630;0.329589
3.500;-3.220702;0.327397
3.510;-3.245018;0.324778
3.520;-3.271711;0.321667
3.530;-3.300518;0.318242
3.540;-3.331064;0.314818
3.550;-3.363247;0.311702
3.560;-3.397572;0.309092
3.570;-3.435269;0.307047
3.580;-3.478109;0.305525
3.590;-3.527939;0.304445
3.600;-3.586048;0.303719
3.610;-3.652552;0.303283
3.620;-3.725972;0.303106
3.630;-3.803171;0.303217
3.640;-3.879704;0.303705
3.650;-3.950537;0.304752
3.660;-4.010976;0.306674
3.670;-4.057555;0.309978
3.680;-4.088605;0.315346
3.690;-4.104293;0.323537
3.700;-4.106156;0.335182
3.710;-4.096342;0.350570
3.720;-4.076890;0.369474
3.730;-4.049307;0.391137
3.740;-4.014503;0.414408
3.750;-3.973006;0.438020
3.760;-3.925284;0.460904
3.770;-3.872007;0.482449
3.780;-3.814171;0.502613
3.790;-3.753076;0.521827
3.800;-3.690214;0.540718
3.810;-3.627114;0.559782
3.820;-3.565147;0.579161
3.830;-3.505343;0.598648
3.840;-3.448240;0.617882
3.850;-3.393814;0.636628
3.860;-3.341532;0.654947
3.870;-3.290532;0.673188
3.880;-3.239926;0.691823
3.890;-3.189165;0.711198
3.900;-3.138338;0.731333
3.910;-3.088281;0.751835
3.920;-3.040454;0.771966
3.930;-2.996601;0.790829
3.940;-2.958284;0.807584
3.950;-2.926458;0.821635
3.960;-2.901220;0.832724
3.970;-2.881838;0.840931
3.980;-2.867028;0.846577
3.990;-2.855358;0.850098
4.000;-2.845592;0.851967
4.010;-2.836858;0.852677
4.020;-2.828616;0.852754
4.030;-2.820492;0.852733
4.040;-2.812103;0.853051
4.050;-2.802970;0.853928
4.060;-2.792533;0.855307
4.070;-2.780254;0.856914
4.080;-2.765745;0.858415
4.090;-2.748858;0.859581
4.100;-2.729711;0.860396
4.110;-2.708620;0.861057
4.120;-2.685986;0.861887
4.130;-2.662156;0.863208
4.140;-2.637353;0.865203
4.150;-2.611675;0.867847
4.160;-2.585176;0.870906
4.170;-2.557961;0.874010
4.180;-2.530252;0.876755
4.190;-2.502363;0.878830
4.200;-2.474591;0.880143
4.210;-2.447097;0.880935
4.220;-2.419863;0.881789
4.230;-2.392794;0.883455
4.240;-2.365946;0.886502
4.250;-2.339768;0.890957
4.260;-2.315237;0.896155
4.270;-2.293762;0.900902
4.280;-2.276855;0.903915
4.290;-2.265659;0.904323
4.300;-2.260508;0.902031
4.310;-2.260684;0.897785
4.320;-2.264522;0.892977
4.330;-2.269827;0.889252
4.340;-2.274466;0.888086
4.350;-2.276899;0.890432
4.360;-2.276452;0.896536
4.370;-2.273306;0.905945
4.380;-2.268307;0.917674
4.390;-2.262698;0.930433
4.400;-2.257876;0.942842
4.410;-2.255173;0.953610
4.420;-2.255650;0.961728
4.430;-2.259948;0.966664
4.440;-2.268202;0.968498
4.450;-2.280073;0.967906
4.460;-2.294888;0.965983
4.470;-2.311836;0.963954
4.480;-2.330151;0.962875
4.490;-2.349239;0.963413
4.500;-2.368722;0.965736
4.510;-2.388400;0.969549
4.520;-2.408169;0.974287
4.530;-2.427950;0.979394
4.540;-2.447671;0.984570
4.550;-2.467334;0.989836
4.560;-2.487097;0.995402
4.570;-2.507302;1.001455
4.580;-2.528387;1.008049
4.590;-2.550701;1.015124
4.600;-2.574341;1.022584
4.610;-2.599069;1.030305
4.620;-2.624377;1.038072
4.630;-2.649666;1.045516
4.640;-2.674504;1.052175
4.650;-2.698858;1.057687
4.660;-2.723227;1.062000
4.670;-2.748587;1.065462
4.680;-2.776156;1.068690
4.690;-2.807063;1.072261
4.700;-2.842054;1.076370
4.710;-2.881375;1.080648
4.720;-2.924823;1.084244
4.730;-2.971887;1.086151
4.740;-3.021808;1.085643
4.750;-3.073519;1.082607
4.760;-3.125503;1.077605
4.770;-3.175690;1.071644
4.780;-3.221562;1.065778
4.790;-3.260515;1.060763
4.800;-3.290427;1.056903
4.810;-3.310230;1.054067
4.820;-3.320237;1.051838
4.830;-3.322095;1.049695
4.840;-3.318402;1.047203
4.850;-3.312146;1.044126
4.860;-3.306143;1.040398
4.870;-3.302592;1.035988
4.880;-3.302789;1.030778
4.890;-3.307052;1.024578
4.900;-3.314840;1.017285
4.910;-3.325036;1.009035
4.920;-3.336307;1.000259
4.930;-3.347430;0.991566
4.940;-3.357505;0.983539
4.950;-3.366053;0.976539
4.960;-3.373011;0.970586
4.970;-3.378683;0.965356
4.980;-3.383661;0.960279
4.990;-3.388722;0.954745
5.000;-3.394657;0.948335
5.010;-3.402081;0.940979
5.020;-3.411254;0.932987
5.030;-3.421979;0.924929
5.040;-3.433609;0.917438
5.050;-3.445133;0.911010
5.060;-3.455352;0.905881
5.070;-3.463090;0.901999
5.080;-3.467403;0.899086
5.090;-3.467710;0.896738
5.100;-3.463822;0.894531
5.110;-3.455826;0.892090
5.120;-3.443886;0.889133
5.130;-3.428028;0.885480
5.140;-3.408028;0.881066
5.150;-3.383480;0.875972
5.160;-3.354039;0.870472
5.170;-3.319713;0.865069
5.180;-3.281064;0.860430
5.190;-3.239219;0.857219
5.200;-3.195671;0.855890
5.210;-3.151932;0.856575
5.220;-3.109189;0.859114
5.230;-3.068082;0.863192
5.240;-3.028693;0.868470
5.250;-2.990715;0.874624
5.260;-2.953707;0.881300
5.270;-2.917321;0.888045
5.280;-2.881438;0.894317
5.290;-2.846141;0.899604
5.300;-2.811557;0.903617
5.310;-2.777651;0.906470
5.320;-2.744121;0.908750
5.330;-2.710486;0.911405
5.340;-2.676310;0.915462
5.350;-2.641467;0.921673
5.360;-2.606324;0.930208
5.370;-2.571806;0.940512
5.380;-2.539329;0.951380
5.390;-2.510601;0.961272
5.400;-2.487310;0.968778
5.410;-2.470743;0.973059
5.420;-2.461476;0.974078
5.430;-2.459269;0.972534
5.440;-2.463210;0.969540
5.450;-2.472046;0.966178
5.460;-2.484514;0.963123
5.470;-2.499526;0.960497
5.480;-2.516174;0.957996
5.490;-2.533619;0.955206
5.500;-2.550997;0.951910
5.510;-2.567411;0.948222
5.520;-2.582013;0.944496
5.530;-2.594139;0.941084
5.540;-2.603444;0.938115
5.550;-2.609978;0.935426
5.560;-2.614195;0.932666
5.570;-2.616858;0.929492
5.580;-2.618880;0.925739
5.590;-2.621126;0.921478
5.600;-2.624244;0.916953
5.610;-2.628569;0.912468
5.620;-2.634127;0.908288
5.630;-2.640707;0.904586
5.640;-2.647961;0.901432
5.650;-2.655482;0.898779
5.660;-2.662856;0.896465
5.670;-2.669712;0.894245
5.680;-2.675757;0.891886
5.690;-2.680819;0.889271
5.700;-2.684844;0.886463
5.710;-2.687842;0.883690
5.720;-2.689790;0.881247
5.730;-2.690560;0.879364
5.740;-2.689925;0.878099
5.750;-2.687644;0.877303
5.760;-2.683552;0.876700
5.770;-2.677593;0.876058
5.780;-2.669783;0.875364
5.790;-2.660140;0.874905
5.800;-2.648644;0.875181
5.810;-2.635297;0.876680
5.820;-2.620273;0.879607
5.830;-2.604074;0.883741
5.840;-2.587575;0.888480
5.850;-2.571890;0.893096
5.860;-2.558126;0.897043
5.870;-2.547131;0.900164
5.880;-2.539342;0.902695
5.890;-2.534773;0.905080
5.900;-2.533105;0.907716
5.910;-2.533847;0.910748
5.920;-2.536481;0.914017
5.930;-2.540571;0.917167
5.940;-2.545771;0.919823
5.950;-2.551773;0.921731
5.960;-2.558237;0.922831
5.970;-2.564749;0.923264
5.980;-2.570868;0.923371
5.990;-2.576243;0.923679
6.000;-2.580767;0.924847
6.010;-2.584690;0.927540
6.020;-2.588606;0.932226
6.030;-2.593301;0.938970
6.040;-2.599503;0.947312
6.050;-2.607665;0.956332
6.060;-2.617884;0.964916
6.070;-2.629997;0.972095
6.080;-2.643755;0.977313
6.090;-2.658962;0.980501
6.100;-2.675501;0.981973
6.110;-2.693264;0.982219
6.120;-2.712061;0.981692
6.130;-2.731541;0.980692
6.140;-2.751164;0.979369
6.150;-2.770230;0.977804
6.160;-2.787967;0.976074
6.170;-2.803658;0.974254
6.180;-2.816789;0.972365
6.190;-2.827154;0.970337
6.200;-2.834895;0.968039
6.210;-2.840448;0.965345
6.220;-2.844393;0.962185
6.230;-2.847279;0.958561
6.240;-2.849477;0.954519
6.250;-2.851127;0.950110
6.260;-2.852196;0.945370
6.270;-2.852613;0.940294
6.280;-2.852419;0.934832
6.290;-2.851849;0.928897
6.300;-2.851299;0.922400
6.310;-2.851198;0.915302
6.320;-2.851838;0.907647
6.330;-2.853264;0.899541
6.340;-2.855269;0.891082
6.350;-2.857526;0.882283
6.360;-2.859789;0.873051
6.370;-2.862068;0.863257
6.380;-2.864679;0.852894
6.390;-2.868099;0.842231
6.400;-2.872697;0.831858
6.410;-2.878459;0.822578
6.420;-2.884865;0.815187
6.430;-2.891005;0.810239
6.440;-2.895879;0.807896
6.450;-2.898751;0.807886
6.460;-2.899416;0.809560
6.470;-2.898236;0.812033
6.480;-2.895945;0.814377
6.490;-2.893304;0.815860
6.500;-2.890762;0.816109
6.510;-2.888278;0.815132
6.520;-2.885371;0.813202
6.530;-2.881363;0.810678
6.540;-2.875678;0.807896
6.550;-2.868083;0.805156
6.560;-2.858766;0.802760
6.570;-2.848273;0.801007
6.580;-2.837364;0.800125
6.590;-2.826870;0.800196
6.600;-2.817579;0.801127
6.610;-2.810167;0.802689
6.620;-2.805161;0.804564
6.630;-2.802884;0.806362
6.640;-2.803405;0.807654
6.650;-2.806484;0.808056
6.660;-2.811597;0.807360
6.670;-2.818047;0.805645
6.680;-2.825162;0.803286
6.690;-2.832503;0.800839
6.700;-2.839990;0.798841
6.710;-2.847899;0.797620
6.720;-2.856705;0.797204
6.730;-2.866878;0.797348
6.740;-2.878685;0.797660
6.750;-2.892108;0.797721
6.760;-2.906866;0.797173
6.770;-2.922541;0.795763
6.780;-2.938735;0.793371
6.790;-2.955203;0.790026
6.800;-2.971914;0.785899
6.810;-2.989000;0.781274
6.820;-3.006626;0.776527
6.830;-3.024816;0.772110
6.840;-3.043345;0.768525
6.850;-3.061733;0.766251
6.860;-3.079350;0.765622
6.870;-3.095547;0.766703
6.880;-3.109767;0.769210
6.890;-3.121623;0.772523
6.900;-3.130936;0.775823
6.910;-3.137723;0.778325
6.920;-3.142082;0.779558
6.930;-3.144036;0.779540
6.940;-3.143410;0.778800
6.950;-3.139848;0.778203
6.960;-3.132962;0.778660
6.970;-3.122525;0.780834
6.980;-3.108631;0.784895
6.990;-3.091744;0.790415
7.000;-3.072668;0.796454
7.010;-3.052416;0.801839
7.020;-3.032004;0.805556
7.030;-3.012197;0.807110
7.040;-2.993299;0.806706
7.050;-2.975099;0.805172
7.060;-2.957019;0.803635
7.070;-2.938411;0.803069
7.080;-2.918881;0.803929
7.090;-2.898468;0.806014
7.100;-2.877605;0.808635
7.110;-2.856879;0.810966
7.120;-2.836747;0.812404
7.130;-2.817374;0.812795
7.140;-2.798701;0.812426
7.150;-2.780664;0.811837
7.160;-2.763424;0.811550
7.170;-2.747419;0.811863
7.180;-2.733225;0.812785
7.190;-2.721289;0.814122
7.200;-2.711686;0.815626
7.210;-2.704021;0.817114
7.220;-2.697539;0.818524
7.230;-2.691375;0.819895
7.240;-2.684846;0.821292
7.250;-2.677675;0.822702
7.260;-2.670053;0.823971
7.270;-2.662536;0.824795
7.280;-2.655826;0.824802
7.290;-2.650528;0.823675
7.300;-2.646946;0.821310
7.310;-2.645012;0.817943
7.320;-2.644358;0.814190
7.330;-2.644512;0.810912
7.340;-2.645123;0.808939
7.350;-2.646100;0.808763
7.360;-2.647620;0.810382
7.370;-2.650027;0.813338
7.380;-2.653709;0.816937
7.390;-2.659000;0.820515
7.400;-2.666132;0.823650
7.410;-2.675188;0.826260
7.420;-2.686047;0.828569
7.430;-2.698337;0.830941
7.440;-2.711446;0.833672
7.450;-2.724616;0.836833
7.460;-2.737097;0.840256
7.470;-2.748299;0.843654
7.480;-2.757868;0.846795
7.490;-2.765661;0.849626
7.500;-2.771652;0.852271
7.510;-2.775846;0.854937
7.520;-2.778249;0.857808
7.530;-2.778903;0.860990
7.540;-2.777933;0.864521
7.550;-2.775544;0.868425
7.560;-2.771949;0.872762
7.570;-2.767302;0.877658
7.580;-2.761668;0.883271
7.590;-2.755088;0.889721
7.600;-2.747691;0.897004
7.610;-2.739788;0.904938
7.620;-2.731857;0.913183
7.630;-2.724425;0.921340
7.640;-2.717891;0.929092
7.650;-2.712375;0.936337
7.660;-2.707671;0.943232
7.670;-2.703319;0.950094
7.680;-2.698803;0.957191
7.690;-2.693796;0.964555
7.700;-2.688332;0.971908
7.710;-2.682801;0.978771
7.720;-2.677726;0.984659
7.730;-2.673455;0.989250
7.740;-2.669918;0.992475
7.750;-2.666606;0.994527
7.760;-2.662782;0.995811
7.770;-2.657830;0.996874
7.780;-2.651577;0.998317
7.790;-2.644426;1.000673
7.800;-2.637223;1.004252
7.810;-2.630936;1.008978
7.820;-2.626290;1.014329
7.830;-2.623526;1.019460
7.840;-2.622360;1.023501
7.850;-2.622110;1.025872
7.860;-2.621924;1.026479
7.870;-2.621011;1.025679
7.880;-2.618835;1.024080
7.890;-2.615235;1.022289
7.900;-2.610436;1.020715
7.910;-2.604949;1.019495
7.920;-2.599372;1.018543
7.930;-2.594177;1.017664
7.940;-2.589547;1.016671
7.950;-2.585315;1.015451
7.960;-2.581032;1.013957
7.970;-2.576133;1.012153
7.980;-2.570153;1.009967
