Time[s];COPx[cm];COPy[cm]
0.010;0.486965;-0.678708
0.020;0.449958;-0.677353
0.030;0.410840;-0.674886
0.040;0.368065;-0.670504
0.050;0.320942;-0.663832
0.060;0.269752;-0.654850
0.070;0.215574;-0.643721
0.080;0.159857;-0.630659
0.090;0.103931;-0.615917
0.100;0.048644;-0.599831
0.110;-0.005726;-0.582825
0.120;-0.059278;-0.565306
0.130;-0.112143;-0.547510
0.140;-0.164189;-0.529388
0.150;-0.214951;-0.510591
0.160;-0.263829;-0.490603
0.170;-0.310419;-0.468950
0.180;-0.354786;-0.445425
0.190;-0.397483;-0.420229
0.200;-0.439290;-0.393972
0.210;-0.480814;-0.367532
0.220;-0.522170;-0.341847
0.230;-0.562892;-0.317695
0.240;-0.602104;-0.295519
0.250;-0.638832;-0.275348
0.260;-0.672316;-0.256836
0.270;-0.702185;-0.239423
0.280;-0.728465;-0.222545
0.290;-0.751478;-0.205762
0.300;-0.771688;-0.188750
0.310;-0.789547;-0.171223
0.320;-0.805400;-0.152862
0.330;-0.819431;-0.133321
0.340;-0.831672;-0.112303
0.350;-0.842017;-0.089668
0.360;-0.850257;-0.065574
0.370;-0.856093;-0.040608
0.380;-0.859151;-0.015810
0.390;-0.858969;0.007476
0.400;-0.854985;0.027899
0.410;-0.846509;0.044442
0.420;-0.832727;0.056659
0.430;-0.812779;0.064771
0.440;-0.785941;0.069578
0.450;-0.751857;0.072260
0.460;-0.710714;0.074125
0.470;-0.663296;0.076409
0.480;-0.610885;0.080163
0.490;-0.555090;0.086217
0.500;-0.497685;0.095165
0.510;-0.440506;0.107319
0.520;-0.385393;0.122672
0.530;-0.334111;0.140908
0.540;-0.288200;0.161536
0.550;-0.248795;0.184095
0.560;-0.216477;0.208355
0.570;-0.191199;0.234377
0.580;-0.172298;0.262459
0.590;-0.158567;0.293018
0.600;-0.148398;0.326506
0.610;-0.139977;0.363361
0.620;-0.131526;0.403933
0.630;-0.121502;0.448345
0.640;-0.108740;0.496319
0.650;-0.092483;0.547118
0.660;-0.072346;0.599666
0.670;-0.048256;0.652826
0.680;-0.020406;0.705670
0.690;0.010773;0.757583
0.700;0.044693;0.808159
0.710;0.080732;0.856943
0.720;0.118368;0.903190
0.730;0.157277;0.945771
0.740;0.197391;0.983269
0.750;0.238937;1.014212
0.760;0.282454;1.037331
0.770;0.328720;1.051770
0.780;0.378550;1.057160
0.790;0.432492;1.053573
0.800;0.490508;1.041395
0.810;0.551797;1.021165
0.820;0.614827;0.993483
0.830;0.677586;0.959008
0.840;0.737953;0.918555
0.850;0.794076;0.873183
0.860;0.844644;0.824177
0.870;0.889002;0.772895
0.880;0.927108;0.720521
0.890;0.959395;0.667884
0.900;0.986573;0.615457
0.910;1.009449;0.563543
0.920;1.028785;0.512562
0.930;1.045258;0.463237
0.940;1.059473;0.416551
0.950;1.072034;0.373468
0.960;1.083640;0.334570
0.970;1.095159;0.299790
0.980;1.107649;0.268381
0.990;1.122256;0.239151
1.000;1.139991;0.210844
1.010;1.161465;0.182523
1.020;1.186705;0.153801
1.030;1.215174;0.124869
1.040;1.245998;0.096368
1.050;1.278321;0.069143
1.060;1.311635;0.043994
1.070;1.345965;0.021493
1.080;1.381810;0.001956
1.090;1.419889;-0.014452
1.100;1.460788;-0.027580
1.110;1.504661;-0.037224
1.120;1.551120;-0.043157
1.130;1.599349;-0.045165
1.140;1.648375;-0.043067
1.150;1.697342;-0.036702
1.160;1.745670;-0.025964
1.170;1.793060;-0.010865
1.180;1.839399;0.008412
1.190;1.884626;0.031521
1.200;1.928626;0.058033
1.210;1.971160;0.087566
1.220;2.011858;0.119900
1.230;2.050263;0.155046
1.240;2.085888;0.193225
1.250;2.118273;0.234766
1.260;2.147012;0.279917
1.270;2.171771;0.328635
1.280;2.192277;0.380441
1.290;2.208318;0.434475
1.300;2.219741;0.489752
1.310;2.226489;0.545511
1.320;2.228639;0.601430
1.330;2.226454;0.657602
1.340;2.220421;0.714298
1.350;2.211262;0.771671
1.360;2.199885;0.829549
1.370;2.187263;0.887405
1.380;2.174285;0.944480
1.390;2.161656;1.000010
1.400;2.149887;1.053432
1.410;2.139381;1.104489
1.420;2.130560;1.153135
1.430;2.123980;1.199298
1.440;2.120349;1.242583
1.450;2.120436;1.282105
1.460;2.124885;1.316550
1.470;2.134037;1.344459
1.480;2.147840;1.364609
1.490;2.165879;1.376367
1.500;2.187510;1.379913
1.510;2.212026;1.376252
1.520;2.238803;1.367041
1.530;2.267394;1.354246
1.540;2.297542;1.339708
1.550;2.329097;1.324733
1.560;2.361875;1.309818
1.570;2.395521;1.294621
1.580;2.429473;1.278155
1.590;2.463061;1.259166
1.600;2.495672;1.236566
1.610;2.526873;1.209777
1.620;2.556411;1.178858
1.630;2.584110;1.144398
1.640;2.609720;1.107268
1.650;2.632797;1.068365
1.660;2.652705;1.028481
1.670;2.668748;0.988296
1.680;2.680396;0.948451
1.690;2.687490;0.909610
1.700;2.690335;0.872501
1.710;2.689653;0.837907
1.720;2.686412;0.806599
1.730;2.681606;0.779229
1.740;2.676072;0.756180
1.750;2.670383;0.737407
1.760;2.664847;0.722351
1.770;2.659586;0.709969
1.780;2.654668;0.698944
1.790;2.650212;0.687984
1.800;2.646405;0.676062
1.810;2.643454;0.662476
1.820;2.641495;0.646743
1.830;2.640546;0.628456
1.840;2.640535;0.607206
1.850;2.641356;0.582625
1.860;2.642894;0.554507
1.870;2.644959;0.522940
1.880;2.647128;0.488378
1.890;2.648606;0.451601
1.900;2.648214;0.413559
1.910;2.644558;0.375148
1.920;2.636354;0.336956
1.930;2.622748;0.299056
1.940;2.603517;0.260955
1.950;2.579047;0.221757
1.960;2.550161;0.180524
1.970;2.517904;0.136714
1.980;2.483394;0.090522
1.990;2.447732;0.043042
2.000;2.411936;-0.003833
2.010;2.376905;-0.047736
2.020;2.343415;-0.086290
2.030;2.312164;-0.117560
2.040;2.283833;-0.140364
2.050;2.259121;-0.154402
2.060;2.238694;-0.160236
2.070;2.223068;-0.159130
2.080;2.212463;-0.152779
2.090;2.206712;-0.142963
2.100;2.205308;-0.131233
2.110;2.207578;-0.118729
2.120;2.212932;-0.106199
2.130;2.221070;-0.094149
2.140;2.232067;-0.083006
2.150;2.246308;-0.073192
2.160;2.264314;-0.065106
2.170;2.286528;-0.059066
2.180;2.313144;-0.055263
2.190;2.344009;-0.053742
2.200;2.378631;-0.054379
2.210;2.416287;-0.056876
2.220;2.456202;-0.060775
2.230;2.497725;-0.065505
2.240;2.540408;-0.070444
2.250;2.583944;-0.075000
2.260;2.628011;-0.078715
2.270;2.672125;-0.081387
2.280;2.715576;-0.083148
2.290;2.757489;-0.084424
2.300;2.796938;-0.085787
2.310;2.833071;-0.087744
2.320;2.865174;-0.090589
2.330;2.892703;-0.094386
2.340;2.915291;-0.099076
2.350;2.932746;-0.104628
2.360;2.945034;-0.111151
2.370;2.952228;-0.118958
2.380;2.954454;-0.128568
2.390;2.951831;-0.140620
2.400;2.944457;-0.155712
2.410;2.932432;-0.174219
2.420;2.915917;-0.196165
2.430;2.895165;-0.221215
2.440;2.870497;-0.248774
2.450;2.842199;-0.278126
2.460;2.810389;-0.308565
2.470;2.774896;-0.339510
2.480;2.735204;-0.370643
2.490;2.690494;-0.402051
2.500;2.639820;-0.434291
2.510;2.582429;-0.468301
2.520;2.518167;-0.505112
2.530;2.447845;-0.545453
2.540;2.373419;-0.589363
2.550;2.297855;-0.636006
2.560;2.224678;-0.683750
2.570;2.157318;-0.730518
2.580;2.098454;-0.774295
2.590;2.049595;-0.813624
2.600;2.011004;-0.847930
2.610;1.981931;-0.877579
2.620;1.961021;-0.903659
2.630;1.946715;-0.927564
2.640;1.937527;-0.950557
2.650;1.932192;-0.973489
2.660;1.929730;-0.996779
2.670;1.929473;-1.020585
2.680;1.931053;-1.045010
2.690;1.934340;-1.070183
2.700;1.939353;-1.096225
2.710;1.946169;-1.123167
2.720;1.954869;-1.150921
2.730;1.965547;-1.179330
2.740;1.978339;-1.208276
2.750;1.993468;-1.237802
2.760;2.011221;-1.268199
2.770;2.031857;-1.299966
2.780;2.055475;-1.333644
2.790;2.081914;-1.369567
2.800;2.110737;-1.407657
2.810;2.141320;-1.447359
2.820;2.173006;-1.487737
2.830;2.205297;-1.527651
2.840;2.237996;-1.565975
2.850;2.271269;-1.601781
2.860;2.305579;-1.634478
2.870;2.341503;-1.663880
2.880;2.379493;-1.690189
2.890;2.419661;-1.713914
2.900;2.461679;-1.735731
2.910;2.504823;-1.756339
2.920;2.548162;-1.776327
2.930;2.590800;-1.796119
2.940;2.632073;-1.815976
2.950;2.671612;-1.836044
2.960;2.709264;-1.856393
2.970;2.744905;-1.877040
2.980;2.778248;-1.897979
2.990;2.808735;-1.919188
3.000;2.835555;-1.940640
3.010;2.857821;-1.962273
3.020;2.874809;-1.983936
3.030;2.886176;-2.005319
3.040;2.892034;-2.025934
3.050;2.892890;-2.045188
3.060;2.889494;-2.062547
3.070;2.882678;-2.077715
3.080;2.873235;-2.090718
3.090;2.861851;-2.101835
3.100;2.849109;-2.111400
3.110;2.835531;-2.119595
3.120;2.821666;-2.126336
3.130;2.808169;-2.131327
3.140;2.795820;-2.134229
3.150;2.785448;-2.134844
3.160;2.777768;-2.133186
3.170;2.773217;-2.129402
3.180;2.771842;-2.123611
3.190;2.773281;-2.115766
3.200;2.776842;-2.105606
3.210;2.781645;-2.092715
3.220;2.786775;-2.076653
3.230;2.791436;-2.057062
3.240;2.795065;-2.033726
3.250;2.797414;-2.006582
3.260;2.798612;-1.975727
3.270;2.799173;-1.941397
3.280;2.799944;-1.903928
3.290;2.801976;-1.863695
3.300;2.806332;-1.821054
3.310;2.813874;-1.776321
3.320;2.825121;-1.729806
3.330;2.840212;-1.681891
3.340;2.858958;-1.633113
3.350;2.880947;-1.584177
3.360;2.905663;-1.535845
3.370;2.932586;-1.488761
3.380;2.961281;-1.443278
3.390;2.991423;-1.399412
3.400;3.022757;-1.356947
3.410;3.054995;-1.315612
3.420;3.087716;-1.275231
3.430;3.120344;-1.235795
3.440;3.152249;-1.197446
3.450;3.182925;-1.160446
3.460;3.212163;-1.125111
3.470;3.240097;-1.091697
3.480;3.267088;-1.060259
3.490;3.293519;-1.030552
3.500;3.319612;-1.002044
3.510;3.345340;-0.974043
3.520;3.370442;-0.945873
3.530;3.394497;-0.917042
3.540;3.417016;-0.887360
3.550;3.437544;-0.856991
3.560;3.455768;-0.826418
3.570;3.471602;-0.796297
3.580;3.485242;-0.767229
3.590;3.497152;-0.739541
3.600;3.508005;-0.713189
3.610;3.518570;-0.687848
3.620;3.529589;-0.663151
3.630;3.541645;-0.638923
3.640;3.555073;-0.615307
3.650;3.569945;-0.592732
3.660;3.586181;-0.571786
3.670;3.603720;-0.553079
3.680;3.622699;-0.537117
3.690;3.643517;-0.524176
3.700;3.666758;-0.514172
3.710;3.692999;-0.506615
3.720;3.722581;-0.500716
3.730;3.755427;-0.495672
3.740;3.791006;-0.490999
3.750;3.828453;-0.486763
3.760;3.866837;-0.483574
3.770;3.905435;-0.482368
3.780;3.943900;-0.484061
3.790;3.982225;-0.489259
3.800;4.020576;-0.498119
3.810;4.059077;-0.510391
3.820;4.097640;-0.525570
3.830;4.135897;-0.543048
3.840;4.173226;-0.562202
3.850;4.208871;-0.582430
3.860;4.242126;-0.603183
3.870;4.272545;-0.623982
3.880;4.300088;-0.644387
3.890;4.325150;-0.663924
3.900;4.348471;-0.682050
3.910;4.370938;-0.698220
3.920;4.393355;-0.712024
3.930;4.416247;-0.723328
3.940;4.439746;-0.732300
3.950;4.463614;-0.739332
3.960;4.487384;-0.744892
3.970;4.510558;-0.749381
3.980;4.532789;-0.753043
3.990;4.553998;-0.755982
4.000;4.574393;-0.758265
4.010;4.594371;-0.760062
4.020;4.614328;-0.761722
4.030;4.634401;-0.763738
4.040;4.654231;-0.766622
4.050;4.672850;-0.770780
4.060;4.688802;-0.776455
4.070;4.700488;-0.783699
4.080;4.706598;-0.792362
4.090;4.706450;-0.802079
4.100;4.700109;-0.812289
4.110;4.688255;-0.822343
4.120;4.671900;-0.831654
4.130;4.652048;-0.839841
4.140;4.629415;-0.846756
4.150;4.604259;-0.852369
4.160;4.576367;-0.856557
4.170;4.545147;-0.858898
4.180;4.509807;-0.858567
4.190;4.469563;-0.854391
4.200;4.423873;-0.845056
4.210;4.372714;-0.829451
4.220;4.316849;-0.807061
4.230;4.258007;-0.778276
4.240;4.198831;-0.744450
4.250;4.142547;-0.707651
4.260;4.092362;-0.670158
4.270;4.050793;-0.633884
4.280;4.019146;-0.599935
4.290;3.997347;-0.568469
4.300;3.984192;-0.538898
4.310;3.977905;-0.510332
4.320;3.976782;-0.482039
4.330;3.979708;-0.453736
4.340;3.986382;-0.425609
4.350;3.997212;-0.398124
4.360;4.012938;-0.371791
4.370;4.034149;-0.346997
4.380;4.060861;-0.323949
4.390;4.092322;-0.302683
4.400;4.127113;-0.283084
4.410;4.163494;-0.264891
4.420;4.199843;-0.247736
4.430;4.234999;-0.231235
4.440;4.268394;-0.215118
4.450;4.299974;-0.199311
4.460;4.329982;-0.183890
4.470;4.358708;-0.168935
4.480;4.386260;-0.154354
4.490;4.412434;-0.139800
4.500;4.436745;-0.124765
4.510;4.458607;-0.108819
4.520;4.477585;-0.091870
4.530;4.493590;-0.074289
4.540;4.506919;-0.056791
4.550;4.518143;-0.040134
4.560;4.527912;-0.024751
4.570;4.536812;-0.010513
4.580;4.545300;0.003306
4.590;4.553738;0.017846
4.600;4.562416;0.034387
4.610;4.571536;0.054064
4.620;4.581143;0.077686
4.630;4.591080;0.105624
4.640;4.600966;0.137800
4.650;4.610243;0.173749
4.660;4.618258;0.212760
4.670;4.624388;0.254062
4.680;4.628184;0.296982
4.690;4.629459;0.341058
4.700;4.628249;0.386070
4.710;4.624668;0.431993
4.720;4.618705;0.478835
4.730;4.610136;0.526397
4.740;4.598592;0.574036
4.750;4.583758;0.620561
4.760;4.565598;0.664333
4.770;4.544451;0.703578
4.780;4.520961;0.736797
4.790;4.495861;0.763135
4.800;4.469724;0.782525
4.810;4.442811;0.795547
4.820;4.415118;0.803084
4.830;4.386597;0.805974
4.840;4.357431;0.804836
4.850;4.328228;0.800101
4.860;4.300002;0.792144
4.870;4.273975;0.781399
4.880;4.251293;0.768371
4.890;4.232773;0.753567
4.900;4.218801;0.737384
4.910;4.209363;0.720033
4.920;4.204178;0.701515
4.930;4.202843;0.681639
4.940;4.204942;0.660070
4.950;4.210052;0.636391
4.960;4.217695;0.610180
4.970;4.227253;0.581102
4.980;4.237943;0.549008
4.990;4.248864;0.514051
5.000;4.259081;0.476819
5.010;4.267713;0.438415
5.020;4.274010;0.400455
5.030;4.277404;0.364923
5.040;4.277547;0.333905
5.050;4.274323;0.309243
5.060;4.267823;0.292181
5.070;4.258296;0.283126
5.080;4.246121;0.281628
5.090;4.231775;0.286593
5.100;4.215782;0.296604
5.110;4.198631;0.310242
5.120;4.180680;0.326284
5.130;4.162113;0.343767
5.140;4.142956;0.361955
5.150;4.123145;0.380311
5.160;4.102622;0.398521
5.170;4.081398;0.416571
5.180;4.059566;0.434783
5.190;4.037244;0.453742
5.200;4.014464;0.474150
5.210;3.991065;0.496670
5.220;3.966648;0.521801
5.230;3.940661;0.549821
5.240;3.912579;0.580772
5.250;3.882117;0.614466
5.260;3.849381;0.650481
5.270;3.814877;0.688160
5.280;3.779373;0.726634
5.290;3.743668;0.764897
5.300;3.708353;0.801911
5.310;3.673669;0.836713
5.320;3.639518;0.868498
5.330;3.605637;0.896670
5.340;3.571849;0.920867
5.350;3.538296;0.940946
5.360;3.505515;0.956964
5.370;3.474319;0.969153
5.380;3.445555;0.977918
5.390;3.419840;0.983839
5.400;3.397443;0.987634
5.410;3.378373;0.990006
5.420;3.362623;0.991404
5.430;3.350421;0.991819
5.440;3.342341;0.990784
5.450;3.339199;0.987616
5.460;3.341782;0.981788
5.470;3.350521;0.973220
5.480;3.365228;0.962367
5.490;3.385004;0.950067
5.500;3.408342;0.937272
5.510;3.433395;0.924809
5.520;3.458322;0.913265
5.530;3.481595;0.903019
5.540;3.502176;0.894338
5.550;3.519516;0.887427
5.560;3.533408;0.882382
5.570;3.543804;0.879062
5.580;3.550662;0.876983
5.590;3.553899;0.875370
5.600;3.553417;0.873342
5.610;3.549204;0.870179
5.620;3.541420;0.865514
5.630;3.530426;0.859397
5.640;3.516744;0.852199
5.650;3.500944;0.844403
5.660;3.483549;0.836369
5.670;3.464988;0.828149
5.680;3.445585;0.819440
5.690;3.425551;0.809675
5.700;3.404940;0.798230
5.710;3.383597;0.784626
5.720;3.361115;0.768632
5.730;3.336828;0.750235
5.740;3.309837;0.729501
5.750;3.279103;0.706445
5.760;3.243604;0.680964
5.770;3.202525;0.652864
5.780;3.155424;0.621908
5.790;3.102314;0.587832
5.800;3.043657;0.550344
5.810;2.980280;0.509136
5.820;2.913243;0.463986
5.830;2.843633;0.414927
5.840;2.772342;0.362448
5.850;2.699892;0.307598
5.860;2.626381;0.251899
5.870;2.551578;0.197037
5.880;2.475111;0.144436
5.890;2.396652;0.094902
5.900;2.316044;0.048489
5.910;2.233334;0.004630
5.920;2.148768;-0.037567
5.930;2.062786;-0.079035
5.940;1.976033;-0.120559
5.950;1.889374;-0.162720
5.960;1.803895;-0.205909
5.970;1.720868;-0.250334
5.980;1.641696;-0.295988
5.990;1.567819;-0.342628
6.000;1.500572;-0.389789
6.010;1.440963;-0.436898
6.020;1.389437;-0.483423
6.030;1.345695;-0.529001
6.040;1.308694;-0.573498
6.050;1.276859;-0.616989
6.060;1.248507;-0.659710
6.070;1.222382;-0.701984
6.080;1.198129;-0.744133
6.090;1.176516;-0.786373
6.100;1.159278;-0.828655
6.110;1.148628;-0.870469
6.120;1.146615;-0.910668
6.130;1.154565;-0.947444
6.140;1.172781;-0.978592
6.150;1.200551;-1.002060
6.160;1.236388;-1.016587
6.170;1.278380;-1.022161
6.180;1.324536;-1.020060
6.190;1.373099;-1.012426
6.200;1.422792;-1.001538
6.210;1.472989;-0.989098
6.220;1.523759;-0.975818
6.230;1.575772;-0.961432
6.240;1.630086;-0.945077
6.250;1.687895;-0.925837
6.260;1.750279;-0.903222
6.270;1.817966;-0.877429
6.280;1.891131;-0.849298
6.290;1.969274;-0.820021
6.300;2.051225;-0.790781
6.310;2.135283;-0.762500
6.320;2.219472;-0.735802
6.330;2.301853;-0.711133
6.340;2.380842;-0.688895
6.350;2.455473;-0.669494
6.360;2.525523;-0.653281
6.370;2.591443;-0.640444
6.380;2.654088;-0.630913
6.390;2.714299;-0.624322
6.400;2.772523;-0.620041
6.410;2.828598;-0.617286
6.420;2.881761;-0.615307
6.430;2.930838;-0.613584
6.440;2.974482;-0.611921
6.450;3.011376;-0.610389
6.460;3.040371;-0.609136
6.470;3.060560;-0.608202
6.480;3.071354;-0.607424
6.490;3.072555;-0.606446
6.500;3.064425;-0.604818
6.510;3.047684;-0.602157
6.520;3.023426;-0.598291
6.530;2.992971;-0.593344
6.540;2.957678;-0.587671
6.550;2.918735;-0.581672
6.560;2.876972;-0.575508
6.570;2.832759;-0.568829
6.580;2.786095;-0.560666
6.590;2.736918;-0.549555
6.600;2.685606;-0.533900
6.610;2.633440;-0.512439
6.620;2.582800;-0.484634
6.630;2.536932;-0.450827
6.640;2.499298;-0.412104
6.650;2.472725;-0.369967
6.660;2.458685;-0.325941
6.670;2.456973;-0.281252
6.680;2.465923;-0.236629
6.690;2.483041;-0.192267
6.700;2.505806;-0.147966
6.710;2.532352;-0.103416
6.720;2.561852;-0.058520
6.730;2.594527;-0.013609
6.740;2.631345;0.030532
6.750;2.673534;0.072843
6.760;2.722076;0.112274
6.770;2.777304;0.148075
6.780;2.838725;0.179984
6.790;2.905056;0.208236
6.800;2.974448;0.233415
6.810;3.044812;0.256235
6.820;3.114146;0.277359
6.830;3.180808;0.297336
6.840;3.243675;0.316644
6.850;3.302163;0.335768
6.860;3.356112;0.355216
6.870;3.405601;0.375440
6.880;3.450774;0.396660
6.890;3.491763;0.418714
6.900;3.528757;0.440987
6.910;3.562139;0.462497
6.920;3.592604;0.482103
6.930;3.621144;0.498821
6.940;3.648884;0.512140
6.950;3.676812;0.522254
6.960;3.705563;0.530088
6.970;3.735367;0.537097
6.980;3.766198;0.544910
6.990;3.798012;0.554949
7.000;3.830907;0.568158
7.010;3.865129;0.584940
7.020;3.900930;0.605272
7.030;3.938360;0.628956
7.040;3.977119;0.655893
7.050;4.016538;0.686270
7.060;4.055675;0.720571
7.070;4.093486;0.759412
7.080;4.129016;0.803289
7.090;4.161568;0.852357
7.100;4.190807;0.906318
7.110;4.216790;0.964423
7.120;4.239913;1.025549
7.130;4.260818;1.088327
7.140;4.280286;1.151288
7.150;4.299125;1.213030
7.160;4.318056;1.272375
7.170;4.337591;1.328480
7.180;4.357940;1.380851
7.190;4.379029;1.429251
7.200;4.400639;1.473528
7.210;4.422648;1.513477
7.220;4.445220;1.548764
7.230;4.468820;1.578950
7.240;4.494033;1.603592
7.250;4.521278;1.622390
7.260;4.550567;1.635342
7.270;4.581434;1.642868
7.280;4.613020;1.645827
7.290;4.644263;1.645375
7.300;4.674102;1.642676
7.310;4.701629;1.638535
7.320;4.726161;1.633144
7.330;4.747215;1.626066
7.340;4.764415;1.616498
7.350;4.777364;1.603707
7.360;4.785580;1.587434
7.370;4.788534;1.568093
7.380;4.785785;1.546690
7.390;4.777126;1.524536
7.400;4.762679;1.502911
7.410;4.742911;1.482776
7.420;4.718595;1.464625
7.430;4.690712;1.448493
7.440;4.660330;1.434117
7.450;4.628448;1.421186
7.460;4.595866;1.409564
7.470;4.563104;1.399379
7.480;4.530360;1.390961
7.490;4.497526;1.384681
7.500;4.464246;1.380805
7.510;4.430045;1.379456
7.520;4.394470;1.380677
7.530;4.357198;1.384551
7.540;4.318047;1.391269
7.550;4.276880;1.401140
7.560;4.233480;1.414510
7.570;4.187493;1.431647
7.580;4.138515;1.452597
7.590;4.086303;1.477042
7.600;4.031002;1.504180
7.610;3.973273;1.532672
7.620;3.914220;1.560746
7.630;3.855114;1.586445
7.640;3.797028;1.607954
7.650;3.740515;1.623902
7.660;3.685501;1.633529
7.670;3.631409;1.636686
7.680;3.577467;1.633684
7.690;3.523068;1.625059
7.700;3.468011;1.611354
7.710;3.412546;1.592989
7.720;3.357215;1.570252
7.730;3.302586;1.543380
7.740;3.249028;1.512685
7.750;3.196621;1.478669
7.760;3.145199;1.442068
7.770;3.094502;1.403809
7.780;3.044328;1.364880
7.790;2.994650;1.326128
7.800;2.945631;1.288057
7.810;2.897523;1.250663
7.820;2.850480;1.213395
7.830;2.804364;1.175280
7.840;2.758644;1.135201
7.850;2.712468;1.092250
7.860;2.664910;1.046018
7.870;2.615276;0.996725
7.880;2.563353;0.945176
7.890;2.509491;0.892581
7.900;2.454488;0.840300
7.910;2.399306;0.789572
7.920;2.344716;0.741300
7.930;2.291010;0.695970
7.940;2.237888;0.653746
7.950;2.184601;0.614673
7.960;2.130303;0.578861
7.970;2.074468;0.546535
7.980;2.017191;0.517947
7.990;1.959224;0.493251
8.000;1.901733;0.472440
8.010;1.845895;0.455395
8.020;1.792532;0.441980
8.030;1.741943;0.432126
8.040;1.693962;0.425834
8.050;1.648153;0.423112
8.060;1.604005;0.423894
8.070;1.561044;0.427992
8.080;1.518867;0.435109
8.090;1.477154;0.444883
8.100;1.435685;0.456920
8.110;1.394364;0.470813
8.120;1.353222;0.486149
8.130;1.312373;0.502507
