Time[s];COPx[cm];COPy[cm]
0.010;1.142272;1.511188
0.020;1.147450;1.515326
0.030;1.151670;1.517033
0.040;1.154127;1.514473
0.050;1.154366;1.506767
0.060;1.152312;1.494031
0.070;1.148193;1.477077
0.080;1.142395;1.456964
0.090;1.135355;1.434540
0.100;1.127498;1.410127
0.110;1.119241;1.383435
0.120;1.110990;1.353719
0.130;1.103088;1.320145
0.140;1.095688;1.282178
0.150;1.088612;1.239813
0.160;1.081230;1.193544
0.170;1.072463;1.144127
0.180;1.060913;1.092324
0.190;1.045141;1.038796
0.200;1.024023;0.984226
0.210;0.997089;0.929593
0.220;0.964739;0.876416
0.230;0.928251;0.826773
0.240;0.889544;0.783002
0.250;0.850764;0.747151
0.260;0.813800;0.720400
0.270;0.779896;0.702726
0.280;0.749459;0.692928
0.290;0.722128;0.689027
0.300;0.697058;0.688849
0.310;0.673301;0.690610
0.320;0.650188;0.693288
0.330;0.627567;0.696707
0.340;0.605840;0.701338
0.350;0.585814;0.707973
0.360;0.568423;0.717390
0.370;0.554441;0.730132
0.380;0.544260;0.746395
0.390;0.537814;0.766027
0.400;0.534636;0.788620
0.410;0.534030;0.813665
0.420;0.535273;0.840725
0.430;0.537784;0.869602
0.440;0.541217;0.900438
0.450;0.545450;0.933698
0.460;0.550492;0.969986
0.470;0.556382;1.009750
0.480;0.563107;1.053015
0.490;0.570540;1.099288
0.500;0.578384;1.147669
0.510;0.586101;1.197094
0.520;0.592913;1.246608
0.530;0.597901;1.295560
0.540;0.600220;1.343696
0.550;0.599340;1.391112
0.560;0.595220;1.438104
0.570;0.588341;1.484944
0.580;0.579606;1.531633
0.590;0.570119;1.577738
0.600;0.560947;1.622334
0.610;0.552924;1.664136
0.620;0.546548;1.701774
0.630;0.541966;1.734172
0.640;0.539033;1.760880
0.650;0.537435;1.782225
0.660;0.536853;1.799195
0.670;0.537159;1.813112
0.680;0.538558;1.825237
0.690;0.541597;1.836447
0.700;0.546999;1.847101
0.710;0.555370;1.857120
0.720;0.566913;1.866257
0.730;0.581297;1.874446
0.740;0.597769;1.882084
0.750;0.615447;1.890082
0.760;0.633637;1.899653
0.770;0.652031;1.911916
0.780;0.670676;1.927526
0.790;0.689757;1.946486
0.800;0.709321;1.968240
0.810;0.729079;1.991967
0.820;0.748370;2.016977
0.830;0.766279;2.043036
0.840;0.781861;2.070505
0.850;0.794405;2.100238
0.860;0.803638;2.133268
0.870;0.809795;2.170374
0.880;0.813556;2.211679
0.890;0.815884;2.256394
0.900;0.817855;2.302849
0.910;0.820517;2.348811
0.920;0.824792;2.391997
0.930;0.831398;2.430588
0.940;0.840784;2.463572
0.950;0.853082;2.490822
0.960;0.868089;2.512920
0.970;0.885303;2.530853
0.980;0.904005;2.545689
0.990;0.923384;2.558351
1.000;0.942687;2.569499
1.010;0.961335;2.579487
1.020;0.978981;2.588359
1.030;0.995492;2.595916
1.040;1.010878;2.601861
1.050;1.025246;2.605986
1.060;1.038821;2.608290
1.070;1.052033;2.608944
1.080;1.065597;2.608119
1.090;1.080482;2.605787
1.100;1.097732;2.601614
1.110;1.118208;2.594986
1.120;1.142368;2.585159
1.130;1.170223;2.571481
1.140;1.201480;2.553635
1.150;1.235801;2.531845
1.160;1.273026;2.506965
1.170;1.313243;2.480399
1.180;1.356655;2.453820
1.190;1.403343;2.428750
1.200;1.453039;2.406169
1.210;1.505046;2.386281
1.220;1.558303;2.368555
1.230;1.611561;2.351991
1.240;1.663580;2.335529
1.250;1.713285;2.318428
1.260;1.759868;2.300486
1.270;1.802863;2.282037
1.280;1.842185;2.263773
1.290;1.878098;2.246499
1.300;1.911084;2.230961
1.310;1.941634;2.217781
1.320;1.970050;2.207463
1.330;1.996325;2.200398
1.340;2.020149;2.196818
1.350;2.041006;2.196715
1.360;2.058323;2.199790
1.370;2.071629;2.205494
1.380;2.080656;2.213182
1.390;2.085401;2.222294
1.400;2.086110;2.232467
1.410;2.083238;2.243498
1.420;2.077382;2.255202
1.430;2.069202;2.267238
1.440;2.059326;2.279016
1.450;2.048255;2.289706
1.460;2.036326;2.298346
1.470;2.023730;2.304001
1.480;2.010613;2.305929
1.490;1.997178;2.303725
1.500;1.983730;2.297389
1.510;1.970632;2.287291
1.520;1.958175;2.274031
1.530;1.946465;2.258233
1.540;1.935379;2.240281
1.550;1.924642;2.220108
1.560;1.913979;2.197114
1.570;1.903278;2.170312
1.580;1.892680;2.138645
1.590;1.882531;2.101357
1.600;1.873243;2.058230
1.610;1.865133;2.009609
1.620;1.858343;1.956220
1.630;1.852867;1.898892
1.640;1.848665;1.838327
1.650;1.845813;1.775015
1.660;1.844637;1.709313
1.670;1.845790;1.641628
1.680;1.850217;1.572581
1.690;1.858995;1.503096
1.700;1.873057;1.434397
1.710;1.892928;1.367925
1.720;1.918573;1.305199
1.730;1.949397;1.247620
1.740;1.984334;1.196238
1.750;2.021959;1.151565
1.760;2.060597;1.113494
1.770;2.098431;1.081369
1.780;2.133644;1.054166
1.790;2.164572;1.030721
1.800;2.189859;1.009944
1.810;2.208580;0.990944
1.820;2.220311;0.973101
1.830;2.225091;0.956055
1.840;2.223288;0.939683
1.850;2.215403;0.924044
1.860;2.201903;0.909319
1.870;2.183145;0.895746
1.880;2.159424;0.883554
1.890;2.131071;0.872898
1.900;2.098530;0.863790
1.910;2.062332;0.856039
1.920;2.023016;0.849226
1.930;1.981032;0.842749
1.940;1.936696;0.835940
1.950;1.890236;0.828196
1.960;1.841886;0.819095
1.970;1.791961;0.808450
1.980;1.740868;0.796319
1.990;1.689054;0.782973
2.000;1.636919;0.768841
2.010;1.584750;0.754438
2.020;1.532687;0.740287
2.030;1.480716;0.726834
2.040;1.428681;0.714386
2.050;1.376298;0.703090
2.060;1.323222;0.692967
2.070;1.269173;0.684002
2.080;1.214114;0.676266
2.090;1.158386;0.670046
2.100;1.102741;0.665916
2.110;1.048244;0.664677
2.120;0.996066;0.667127
2.130;0.947261;0.673719
2.140;0.902594;0.684278
2.150;0.862476;0.697914
2.160;0.827007;0.713213
2.170;0.796081;0.728600
2.180;0.769482;0.742763
2.190;0.746918;0.754971
2.200;0.727983;0.765189
2.210;0.712087;0.773981
2.220;0.698443;0.782255
2.230;0.686124;0.790967
2.240;0.674204;0.800880
2.250;0.661914;0.812395
2.260;0.648734;0.825476
2.270;0.634428;0.839667
2.280;0.619002;0.854199
2.290;0.602629;0.868173
2.300;0.585549;0.880759
2.310;0.567955;0.891370
2.320;0.549895;0.899761
2.330;0.531225;0.906030
2.340;0.511645;0.910532
2.350;0.490780;0.913758
2.360;0.468264;0.916207
2.370;0.443768;0.918329
2.380;0.416978;0.920500
2.390;0.387573;0.923022
2.400;0.355271;0.926080
2.410;0.319947;0.929651
2.420;0.281790;0.933420
2.430;0.241408;0.936749
2.440;0.199810;0.938770
2.450;0.158272;0.938553
2.460;0.118137;0.935334
2.470;0.080631;0.928727
2.480;0.046730;0.918865
2.490;0.017070;0.906418
2.500;-0.008064;0.892445
2.510;-0.028702;0.878122
2.520;-0.045090;0.864394
2.530;-0.057580;0.851708
2.540;-0.066524;0.839882
2.550;-0.072182;0.828201
2.560;-0.074691;0.815688
2.570;-0.074122;0.801458
2.580;-0.070599;0.785024
2.590;-0.064425;0.766425
2.600;-0.056134;0.746158
2.610;-0.046438;0.724935
2.620;-0.036098;0.703418
2.630;-0.025787;0.682013
2.640;-0.015986;0.660809
2.650;-0.006949;0.639640
2.660;0.001258;0.618248
2.670;0.008660;0.596485
2.680;0.015254;0.574492
2.690;0.020932;0.552765
2.700;0.025472;0.532095
2.710;0.028592;0.513361
2.720;0.030018;0.497320
2.730;0.029525;0.484432
2.740;0.026964;0.474815
2.750;0.022275;0.468281
2.760;0.015522;0.464446
2.770;0.006942;0.462843
2.780;-0.003041;0.463016
2.790;-0.013854;0.464560
2.800;-0.024870;0.467107
2.810;-0.035500;0.470272
2.820;-0.045241;0.473617
2.830;-0.053685;0.476670
2.840;-0.060515;0.479020
2.850;-0.065528;0.480453
2.860;-0.068713;0.481063
2.870;-0.070322;0.481259
2.880;-0.070886;0.481632
2.890;-0.071150;0.482719
2.900;-0.071913;0.484800
2.910;-0.073841;0.487833
2.920;-0.077320;0.491531
2.930;-0.082391;0.495521
2.940;-0.088807;0.499495
2.950;-0.096182;0.503331
2.960;-0.104173;0.507161
2.970;-0.112621;0.511348
2.980;-0.121607;0.516353
2.990;-0.131399;0.522551
3.000;-0.142355;0.530073
3.010;-0.154829;0.538799
3.020;-0.169098;0.548472
3.030;-0.185333;0.558875
3.040;-0.203574;0.569937
3.050;-0.223721;0.581691
3.060;-0.245547;0.594143
3.070;-0.268703;0.607110
3.080;-0.292727;0.620154
3.090;-0.316995;0.632643
3.100;-0.340646;0.643918
3.110;-0.362495;0.653490
3.120;-0.381048;0.661185
3.130;-0.394652;0.667179
3.140;-0.401800;0.671946
3.150;-0.401477;0.676109
3.160;-0.393420;0.680258
3.170;-0.378169;0.684798
3.180;-0.356922;0.689888
3.190;-0.331242;0.695493
3.200;-0.302758;0.701464
3.210;-0.272944;0.707624
3.220;-0.243019;0.713800
3.230;-0.213920;0.719837
3.240;-0.186297;0.725600
3.250;-0.160483;0.730970
3.260;-0.136461;0.735827
3.270;-0.113890;0.740011
3.280;-0.092222;0.743291
3.290;-0.070922;0.745350
3.300;-0.049680;0.745842
3.310;-0.028534;0.744511
3.320;-0.007837;0.741327
3.330;0.011900;0.736565
3.340;0.030205;0.730779
3.350;0.046809;0.724653
3.360;0.061725;0.718793
3.370;0.075241;0.713545
3.380;0.087870;0.708944
3.390;0.100314;0.704819
3.400;0.113455;0.700987
3.410;0.128346;0.697393
3.420;0.146116;0.694117
3.430;0.167756;0.691237
3.440;0.193869;0.688687
3.450;0.224488;0.686186
3.460;0.259085;0.683310
3.470;0.296778;0.679604
3.480;0.336639;0.674686
3.490;0.377979;0.668280
3.500;0.420455;0.660191
3.510;0.463980;0.650298
3.520;0.508493;0.638615
3.530;0.553731;0.625376
3.540;0.599079;0.611105
3.550;0.643579;0.596555
3.560;0.686037;0.582554
3.570;0.725203;0.569814
3.580;0.759969;0.558809
3.590;0.789556;0.549786
3.600;0.813650;0.542888
3.610;0.832469;0.538289
3.620;0.846695;0.536241
3.630;0.857297;0.536994
3.640;0.865275;0.540630
3.650;0.871438;0.546899
3.660;0.876308;0.555192
3.670;0.880163;0.564680
3.680;0.883193;0.574622
3.690;0.885711;0.584728
3.700;0.888304;0.595421
3.710;0.891863;0.607848
3.720;0.897457;0.623572
3.730;0.906094;0.644074
3.740;0.918473;0.670267
3.750;0.934826;0.702236
3.760;0.954868;0.739297
3.770;0.977851;0.780320
3.780;1.002687;0.824176
3.790;1.028108;0.870168
3.800;1.052851;0.918235
3.810;1.075831;0.968858
3.820;1.096263;1.022701
3.830;1.113720;1.080224
3.840;1.128140;1.141483
3.850;1.139784;1.206168
3.860;1.149181;1.273772
3.870;1.157084;1.343699
3.880;1.164417;1.415246
3.890;1.172235;1.487536
3.900;1.181654;1.559532
3.910;1.193761;1.630196
3.920;1.209492;1.698723
3.930;1.229483;1.764751
3.940;1.253918;1.828412
3.950;1.282475;1.890178
3.960;1.314428;1.950589
3.970;1.348923;2.009979
3.980;1.385302;2.068373
3.990;1.423337;2.125550
4.000;1.463240;2.181223
4.010;1.505436;2.235170
4.020;1.550221;2.287242
4.030;1.597496;2.337230
4.040;1.646714;2.384694
4.050;1.697078;2.428905
4.060;1.747872;2.468988
4.070;1.798759;2.504224
4.080;1.849906;2.534360
4.090;1.901879;2.559771
4.100;1.955356;2.581420
4.110;2.010812;2.600655
4.120;2.068304;2.618913
4.130;2.127453;2.637407
4.140;2.187582;2.656847
4.150;2.247945;2.677273
4.160;2.307947;2.698077
4.170;2.367290;2.718225
4.180;2.425989;2.736617
4.190;2.484281;2.752478
4.200;2.542440;2.765651
4.210;2.600588;2.776703
4.220;2.658577;2.786814
4.230;2.716013;2.797433
4.240;2.772411;2.809812
4.250;2.827396;2.824578
4.260;2.880821;2.841511
4.270;2.932714;2.859613
4.280;2.983109;2.877453
4.290;3.031856;2.893644
4.300;3.078545;2.907308
4.310;3.122587;2.918337
4.320;3.163390;2.927356
4.330;3.200555;2.935390
4.340;3.233984;2.943380
4.350;3.263908;2.951762
4.360;3.290814;2.960286
4.370;3.315321;2.968152
4.380;3.338041;2.974414
4.390;3.359466;2.978445
4.400;3.379883;2.980268
4.410;3.399309;2.980589
4.420;3.417469;2.980556
4.430;3.433859;2.981346
4.440;3.447933;2.983797
4.450;3.459347;2.988199
4.460;3.468114;2.994306
4.470;3.474577;3.001512
4.480;3.479193;3.009087
4.490;3.482268;3.016395
4.500;3.483746;3.023026
4.510;3.483156;3.028814
4.520;3.479688;3.033745
4.530;3.472333;3.037806
4.540;3.460067;3.040853
4.550;3.442027;3.042560
4.560;3.417665;3.042471
4.570;3.386836;3.040119
4.580;3.349812;3.035142
4.590;3.307221;3.027375
4.600;3.259971;3.016897
4.610;3.209168;3.004031
4.620;3.156038;2.989309
4.630;3.101830;2.973412
4.640;3.047698;2.957118
4.650;2.994582;2.941252
4.660;2.943117;2.926664
4.670;2.893610;2.914191
4.680;2.846074;2.904594
4.690;2.800315;2.898440
4.700;2.756018;2.895979
4.710;2.712819;2.897062
4.720;2.670343;2.901130
4.730;2.628230;2.907309
4.740;2.586155;2.914560
4.750;2.543853;2.921834
4.760;2.501151;2.928226
4.770;2.458021;2.933100
4.780;2.414618;2.936212
4.790;2.371263;2.937822
4.800;2.328336;2.938798
4.810;2.286140;2.940616
4.820;2.244776;2.945178
4.830;2.204109;2.954377
4.840;2.163814;2.969519
4.850;2.123504;2.990821
4.860;2.082945;3.017209
4.870;2.042315;3.046513
4.880;2.002414;3.075991
4.890;1.964686;3.102992
4.900;1.930976;3.125529
4.910;1.903104;3.142601
4.920;1.882424;3.154207
4.930;1.869549;3.161116
4.940;1.864317;3.164522
4.950;1.865961;3.165730
4.960;1.873390;3.165906
4.970;1.885477;3.165925
4.980;1.901279;3.166297
4.990;1.920141;3.167174
5.000;1.941634;3.168430
5.010;1.965355;3.169754
5.020;1.990670;3.170728
5.030;2.016515;3.170866
5.040;2.041369;3.169647
5.050;2.063411;3.166579
5.060;2.080812;3.161273
5.070;2.092031;3.153529
5.080;2.096058;3.143375
5.090;2.092528;3.131057
5.100;2.081718;3.117018
5.110;2.064440;3.101833
5.120;2.041870;3.086139
5.130;2.015362;3.070555
5.140;1.986274;3.055632
5.150;1.955835;3.041849
5.160;1.925038;3.029625
5.170;1.894570;3.019316
5.180;1.864788;3.011204
5.190;1.835745;3.005470
5.200;1.807320;3.002188
5.210;1.779382;3.001353
5.220;1.751954;3.002952
5.230;1.725258;3.007013
5.240;1.699612;3.013586
5.250;1.675198;3.022655
5.260;1.651778;3.034022
5.270;1.628471;3.047234
5.280;1.603685;3.061624
5.290;1.575274;3.076456
5.300;1.540926;3.091142
5.310;1.498731;3.105458
5.320;1.447806;3.119662
5.330;1.388782;3.134463
5.340;1.323911;3.150824
5.350;1.256671;3.169645
5.360;1.190937;3.191442
5.370;1.129985;3.216127
5.380;1.075714;3.242998
5.390;1.028338;3.270926
5.400;0.986628;3.298614
5.410;0.948512;3.324805
5.420;0.911800;3.348396
5.430;0.874774;3.368471
5.440;0.836556;3.384329
5.450;0.797179;3.395522
5.460;0.757407;3.401891
5.470;0.718353;3.403536
5.480;0.681045;3.400733
5.490;0.646079;3.393824
5.500;0.613457;3.383127
5.510;0.582626;3.368904
5.520;0.552660;3.351343
5.530;0.522524;3.330577
5.540;0.491298;3.306722
5.550;0.458290;3.279953
5.560;0.422947;3.250596
5.570;0.384631;3.219169
5.580;0.342351;3.186342
5.590;0.294631;3.152823
5.600;0.239589;3.119237
5.610;0.175277;3.086061
5.620;0.100174;3.053620
5.630;0.013691;3.022121
5.640;-0.083511;2.991728
5.650;-0.189497;2.962662
5.660;-0.301329;2.935295
5.670;-0.415494;2.910201
5.680;-0.528332;2.888053
5.690;-0.636346;2.869379
5.700;-0.736386;2.854263
5.710;-0.825759;2.842186
5.720;-0.902324;2.832140
5.730;-0.964593;2.822982
5.740;-1.011805;2.813857
5.750;-1.043942;2.804479
5.760;-1.061670;2.795158
5.770;-1.066236;2.786583
5.780;-1.059341;2.779489
5.790;-1.043054;2.774375
5.800;-1.019774;2.771363
5.810;-0.992215;2.770246
5.820;-0.963357;2.770638
5.830;-0.936259;2.772138
5.840;-0.913737;2.774411
5.850;-0.897995;2.777151
5.860;-0.890372;2.779972
5.870;-0.891345;2.782293
5.880;-0.900797;2.783295
5.890;-0.918393;2.782004
5.900;-0.943819;2.777481
5.910;-0.976736;2.769071
5.920;-1.016465;2.756587
5.930;-1.061626;2.740359
5.940;-1.109951;2.721089
5.950;-1.158406;2.699591
5.960;-1.203587;2.676561
5.970;-1.242257;2.652510
5.980;-1.271871;2.627853
5.990;-1.290988;2.603066
6.000;-1.299483;2.578812
6.010;-1.298490;2.555969
6.020;-1.290063;2.535551
6.030;-1.276619;2.518562
6.040;-1.260324;2.505809
6.050;-1.242564;2.497756
6.060;-1.223673;2.494444
6.070;-1.203016;2.495467
6.080;-1.179432;2.500014
6.090;-1.151894;2.506942
6.100;-1.120175;2.514926
6.110;-1.085248;2.522669
6.120;-1.049308;2.529150
6.130;-1.015405;2.533815
6.140;-0.986802;2.536626
6.150;-0.966288;2.537944
6.160;-0.955617;2.538327
6.170;-0.955278;2.538350
6.180;-0.964676;2.538493
6.190;-0.982656;2.539096
6.200;-1.008105;2.540302
6.210;-1.040348;2.542034
6.220;-1.079105;2.544032
6.230;-1.124070;2.546019
6.240;-1.174349;2.547906
6.250;-1.228111;2.549943
6.260;-1.282657;2.552710
6.270;-1.334917;2.556934
6.280;-1.382144;2.563225
6.290;-1.422527;2.571872
6.300;-1.455539;2.582761
6.310;-1.481921;2.595401
6.320;-1.503370;2.608999
6.330;-1.522028;2.622562
6.340;-1.539927;2.635073
6.350;-1.558532;2.645676
6.360;-1.578506;2.653855
6.370;-1.599730;2.659502
6.380;-1.621544;2.662871
6.390;-1.643087;2.664426
6.400;-1.663617;2.664640
6.410;-1.682676;2.663817
6.420;-1.700105;2.661979
6.430;-1.715945;2.658866
6.440;-1.730314;2.653987
6.450;-1.743304;2.646728
6.460;-1.754903;2.636479
6.470;-1.764913;2.622821
6.480;-1.772877;2.605751
6.490;-1.778098;2.585865
6.500;-1.779794;2.564366
6.510;-1.777353;2.542795
6.520;-1.770583;2.522554
6.530;-1.759789;2.504418
6.540;-1.745652;2.488264
6.550;-1.728942;2.473120
6.560;-1.710229;2.457506
6.570;-1.689712;2.439903
6.580;-1.667220;2.419198
6.590;-1.642383;2.394988
6.600;-1.614912;2.367664
6.610;-1.584885;2.338281
6.620;-1.552953;2.308270
6.630;-1.520398;2.279094
6.640;-1.488988;2.251936
6.650;-1.460668;2.227480
6.660;-1.437144;2.205853
6.670;-1.419510;2.186736
6.680;-1.408056;2.169581
6.690;-1.402353;2.153830
6.700;-1.401563;2.139033
6.710;-1.404801;2.124842
6.720;-1.411332;2.110955
6.730;-1.420529;2.097100
6.740;-1.431644;2.083095
6.750;-1.443587;2.068984
6.760;-1.454879;2.055146
6.770;-1.463868;2.042311
6.780;-1.469123;2.031395
6.790;-1.469844;2.023219
6.800;-1.466061;2.018170
6.810;-1.458494;2.015984
6.820;-1.448119;2.015743
6.830;-1.435656;2.016170
6.840;-1.421234;2.016107
6.850;-1.404408;2.014987
6.860;-1.384524;2.013040
6.870;-1.361252;2.011120
6.880;-1.335007;2.010229
6.890;-1.307053;2.010991
6.900;-1.279258;2.013352
6.910;-1.253621;2.016637
6.920;-1.231733;2.019891
6.930;-1.214366;2.022292
6.940;-1.201298;2.023410
6.950;-1.191444;2.023207
6.960;-1.183240;2.021810
6.970;-1.175070;2.019239
6.980;-1.165560;2.015234
6.990;-1.153605;2.009236
7.000;-1.138239;2.000485
7.010;-1.118534;1.988220
7.020;-1.093679;1.971909
7.030;-1.063239;1.951450
7.040;-1.027431;1.927209
7.050;-0.987227;1.899814
7.060;-0.944177;1.869775
7.070;-0.900000;1.837132
7.080;-0.856088;1.801332
7.090;-0.813095;1.761393
7.100;-0.770738;1.716304
7.110;-0.727852;1.665464
7.120;-0.682687;1.609044
7.130;-0.633395;1.548144
7.140;-0.578582;1.484712
7.150;-0.517800;1.421207
7.160;-0.451796;1.360106
7.170;-0.382388;1.303382
7.180;-0.311956;1.252102
7.190;-0.242726;1.206264
7.200;-0.176133;1.164901
7.210;-0.112529;1.126399
7.220;-0.051339;1.088964
7.230;0.008434;1.051097
7.240;0.067600;1.011971
7.250;0.126323;0.971604
7.260;0.183960;0.930761
7.270;0.239230;0.890620
7.280;0.290591;0.852325
7.290;0.336672;0.816620
7.300;0.376574;0.783714
7.310;0.409940;0.753372
7.320;0.436809;0.725186
7.330;0.457397;0.698833
7.340;0.471966;0.674218
7.350;0.480856;0.651451
7.360;0.484657;0.630709
7.370;0.484378;0.612087
7.380;0.481544;0.595524
7.390;0.478106;0.580822
7.400;0.476161;0.567736
7.410;0.477549;0.556050
7.420;0.483437;0.545604
7.430;0.494068;0.536295
7.440;0.508761;0.528080
7.450;0.526180;0.520991
7.460;0.544764;0.515145
7.470;0.563157;0.510727
7.480;0.580517;0.507957
7.490;0.596637;0.507043
7.500;0.611883;0.508133
7.510;0.627014;0.511262
7.520;0.642913;0.516325
7.530;0.660301;0.523086
7.540;0.679493;0.531234
7.550;0.700271;0.540464
7.560;0.721910;0.550533
7.570;0.743331;0.561298
7.580;0.763326;0.572723
7.590;0.780776;0.584862
7.600;0.794843;0.597805
7.610;0.805089;0.611588
7.620;0.811484;0.626106
7.630;0.814305;0.641077
7.640;0.813942;0.656100
7.650;0.810732;0.670756
7.660;0.804923;0.684701
7.670;0.796790;0.697703
7.680;0.786837;0.709584
7.690;0.775947;0.720165
7.700;0.765390;0.729237
7.710;0.756634;0.736590
7.720;0.751018;0.742073
7.730;0.749424;0.745616
7.740;0.752038;0.747235
7.750;0.758286;0.747011
7.760;0.766958;0.745095
7.770;0.776482;0.741693
7.780;0.785280;0.737069
7.790;0.792087;0.731533
7.800;0.796144;0.725438
7.810;0.797234;0.719151
7.820;0.795571;0.712990
7.830;0.791630;0.707141
7.840;0.785966;0.701618
7.850;0.779039;0.696299
7.860;0.771094;0.691053
7.870;0.762107;0.685906
7.880;0.751836;0.681155
7.890;0.739964;0.677367
7.900;0.726256;0.675254
7.910;0.710695;0.675500
7.920;0.693579;0.678607
7.930;0.675566;0.684814
7.940;0.657659;0.694073
7.950;0.641102;0.706074
7.960;0.627157;0.720327
7.970;0.616799;0.736257
7.980;0.610436;0.753310
7.990;0.607762;0.771029
8.000;0.607853;0.789083
8.010;0.609467;0.807283
8.020;0.611443;0.825577
8.030;0.613070;0.844044
8.040;0.614283;0.862873
8.050;0.615639;0.882300
8.060;0.618076;0.902493
8.070;0.622555;0.923437
8.080;0.629705;0.944895
8.090;0.639596;0.966461
8.100;0.651691;0.987673
8.110;0.664956;1.008125
8.120;0.678070;1.027521
8.130;0.689666;1.045654
8.140;0.698570;1.062339
8.150;0.703975;1.077379
8.160;0.705512;1.090572
8.170;0.703214;1.101767
8.180;0.697354;1.110926
8.190;0.688202;1.118153
8.200;0.675776;1.123681
8.210;0.659658;1.127835
8.220;0.638976;1.130977
