Time[s];COPx[cm];COPy[cm]
0.010;-2.036610;-0.014087
0.020;-2.028180;-0.026305
0.030;-2.019052;-0.038064
0.040;-2.008861;-0.049062
0.050;-1.997757;-0.059282
0.060;-1.986359;-0.069048
0.070;-1.975500;-0.078997
0.080;-1.965839;-0.089945
0.090;-1.957552;-0.102655
0.100;-1.950218;-0.117582
0.110;-1.942965;-0.134684
0.120;-1.934783;-0.153393
0.130;-1.924859;-0.172764
0.140;-1.912817;-0.191739
0.150;-1.898806;-0.209412
0.160;-1.883458;-0.225211
0.170;-1.867765;-0.238945
0.180;-1.852894;-0.250735
0.190;-1.839946;-0.260874
0.200;-1.829667;-0.269695
0.210;-1.822190;-0.277473
0.220;-1.816941;-0.284383
0.230;-1.812796;-0.290495
0.240;-1.808476;-0.295805
0.250;-1.803010;-0.300267
0.260;-1.796092;-0.303847
0.270;-1.788192;-0.306569
0.280;-1.780461;-0.308547
0.290;-1.774459;-0.309996
0.300;-1.771789;-0.311212
0.310;-1.773681;-0.312543
0.320;-1.780625;-0.314310
0.330;-1.792142;-0.316694
0.340;-1.806782;-0.319611
0.350;-1.822397;-0.322667
0.360;-1.836651;-0.325223
0.370;-1.847619;-0.326563
0.380;-1.854313;-0.326093
0.390;-1.856925;-0.323506
0.400;-1.856722;-0.318884
0.410;-1.855633;-0.312705
0.420;-1.855681;-0.305759
0.430;-1.858426;-0.298995
0.440;-1.864593;-0.293348
0.450;-1.873950;-0.289533
0.460;-1.885475;-0.287869
0.470;-1.897753;-0.288202
0.480;-1.909481;-0.289965
0.490;-1.919866;-0.292362
0.500;-1.928779;-0.294598
0.510;-1.936660;-0.296096
0.520;-1.944279;-0.296661
0.530;-1.952495;-0.296534
0.540;-1.962040;-0.296286
0.550;-1.973330;-0.296578
0.560;-1.986285;-0.297886
0.570;-2.000251;-0.300324
0.580;-2.014095;-0.303655
0.590;-2.026473;-0.307449
0.600;-2.036196;-0.311295
0.610;-2.042544;-0.314990
0.620;-2.045426;-0.318622
0.630;-2.045332;-0.322511
0.640;-2.043122;-0.327027
0.650;-2.039753;-0.332373
0.660;-2.036037;-0.338439
0.670;-2.032507;-0.344782
0.680;-2.029411;-0.350742
0.690;-2.026797;-0.355620
0.700;-2.024625;-0.358886
0.710;-2.022838;-0.360337
0.720;-2.021369;-0.360162
0.730;-2.020092;-0.358908
0.740;-2.018790;-0.357303
0.750;-2.017164;-0.356026
0.760;-2.014889;-0.355464
0.770;-2.011684;-0.355575
0.780;-2.007359;-0.355924
0.790;-2.001829;-0.355904
0.800;-1.995118;-0.355078
0.810;-1.987359;-0.353483
0.820;-1.978808;-0.351728
0.830;-1.969852;-0.350801
0.840;-1.960960;-0.351671
0.850;-1.952581;-0.354863
0.860;-1.944972;-0.360199
0.870;-1.938071;-0.366799
0.880;-1.931469;-0.373331
0.890;-1.924509;-0.378428
0.900;-1.916495;-0.381141
0.910;-1.906915;-0.381251
0.920;-1.895638;-0.379302
0.930;-1.883005;-0.376351
0.940;-1.869796;-0.373539
0.950;-1.857056;-0.371679
0.960;-1.845816;-0.371021
0.970;-1.836781;-0.371278
0.980;-1.830080;-0.371874
0.990;-1.825182;-0.372259
1.000;-1.821000;-0.372156
1.010;-1.816160;-0.371623
1.020;-1.809344;-0.370957
1.030;-1.799613;-0.370503
1.040;-1.786623;-0.370478
1.050;-1.770663;-0.370879
1.060;-1.752490;-0.371497
1.070;-1.732983;-0.372028
1.080;-1.712755;-0.372212
1.090;-1.691895;-0.371927
1.100;-1.669984;-0.371179
1.110;-1.646364;-0.369987
1.120;-1.620558;-0.368207
1.130;-1.592634;-0.365437
1.140;-1.563373;-0.361076
1.150;-1.534214;-0.354526
1.160;-1.506997;-0.345423
1.170;-1.483588;-0.333798
1.180;-1.465497;-0.320114
1.190;-1.453591;-0.305172
1.200;-1.447977;-0.289914
1.210;-1.448076;-0.275172
1.220;-1.452796;-0.261439
1.230;-1.460773;-0.248742
1.240;-1.470594;-0.236652
1.250;-1.480998;-0.224431
1.260;-1.491011;-0.211246
1.270;-1.499993;-0.196388
1.280;-1.507632;-0.179429
1.290;-1.513870;-0.160287
1.300;-1.518831;-0.139207
1.310;-1.522755;-0.116676
1.320;-1.525957;-0.093336
1.330;-1.528803;-0.069910
1.340;-1.531692;-0.047164
1.350;-1.535047;-0.025862
1.360;-1.539267;-0.006712
1.370;-1.544636;0.009732
1.380;-1.551218;0.023169
1.390;-1.558784;0.033594
1.400;-1.566830;0.041247
1.410;-1.574704;0.046469
1.420;-1.581788;0.049510
1.430;-1.587651;0.050416
1.440;-1.592124;0.049039
1.450;-1.595261;0.045181
1.460;-1.597242;0.038765
1.470;-1.598288;0.029960
1.480;-1.598619;0.019204
1.490;-1.598444;0.007121
1.500;-1.597971;-0.005594
1.510;-1.597371;-0.018279
1.520;-1.596740;-0.030359
1.530;-1.596066;-0.041347
1.540;-1.595268;-0.050864
1.550;-1.594293;-0.058698
1.560;-1.593243;-0.064863
1.570;-1.592447;-0.069615
1.580;-1.592444;-0.073355
1.590;-1.593851;-0.076469
1.600;-1.597149;-0.079151
1.610;-1.602472;-0.081302
1.620;-1.609496;-0.082552
1.630;-1.617499;-0.082418
1.640;-1.625595;-0.080523
1.650;-1.633049;-0.076815
1.660;-1.639532;-0.071676
1.670;-1.645240;-0.065898
1.680;-1.650827;-0.060491
1.690;-1.657169;-0.056445
1.700;-1.665053;-0.054524
1.710;-1.674881;-0.055177
1.720;-1.686537;-0.058515
1.730;-1.699463;-0.064299
1.740;-1.712923;-0.071927
1.750;-1.726309;-0.080492
1.760;-1.739371;-0.088951
1.770;-1.752309;-0.096384
1.780;-1.765706;-0.102213
1.790;-1.780356;-0.106286
1.800;-1.797037;-0.108773
1.810;-1.816291;-0.109985
1.820;-1.838266;-0.110204
1.830;-1.862632;-0.109635
1.840;-1.888607;-0.108463
1.850;-1.915082;-0.106918
1.860;-1.940854;-0.105279
1.870;-1.964905;-0.103793
1.880;-1.986673;-0.102582
1.890;-2.006191;-0.101594
1.900;-2.024059;-0.100607
1.910;-2.041230;-0.099261
1.920;-2.058694;-0.097105
1.930;-2.077163;-0.093699
1.940;-2.096847;-0.088745
1.950;-2.117399;-0.082210
1.960;-2.138063;-0.074346
1.970;-2.157984;-0.065544
1.980;-2.176584;-0.056082
1.990;-2.193831;-0.045917
2.000;-2.210280;-0.034651
2.010;-2.226874;-0.021725
2.020;-2.244586;-0.006717
2.030;-2.264041;0.010376
2.040;-2.285288;0.028998
2.050;-2.307811;0.048128
2.060;-2.330770;0.066546
2.070;-2.353335;0.083191
2.080;-2.374940;0.097449
2.090;-2.395360;0.109272
2.100;-2.414618;0.119079
2.110;-2.432794;0.127515
2.120;-2.449848;0.135161
2.130;-2.465509;0.142295
2.140;-2.479251;0.148806
2.150;-2.490335;0.154293
2.160;-2.497915;0.158324
2.170;-2.501211;0.160691
2.180;-2.499756;0.161543
2.190;-2.493659;0.161330
2.200;-2.483743;0.160606
2.210;-2.471446;0.159795
2.220;-2.458502;0.159041
2.230;-2.446503;0.158182
2.240;-2.436497;0.156869
2.250;-2.428713;0.154734
2.260;-2.422484;0.151514
2.270;-2.416391;0.147090
2.280;-2.408638;0.141434
2.290;-2.397578;0.134548
2.300;-2.382258;0.126447
2.310;-2.362771;0.117177
2.320;-2.340276;0.106853
2.330;-2.316639;0.095668
2.340;-2.293834;0.083888
2.350;-2.273331;0.071814
2.360;-2.255686;0.059712
2.370;-2.240457;0.047757
2.380;-2.226435;0.035984
2.390;-2.212079;0.024278
2.400;-2.196011;0.012374
2.410;-2.177408;-0.000112
2.420;-2.156223;-0.013635
2.430;-2.133170;-0.028647
2.440;-2.109497;-0.045505
2.450;-2.086621;-0.064361
2.460;-2.065725;-0.085052
2.470;-2.047446;-0.107013
2.480;-2.031722;-0.129307
2.490;-2.017859;-0.150805
2.500;-2.004792;-0.170475
2.510;-1.991469;-0.187656
2.520;-1.977235;-0.202176
2.530;-1.962085;-0.214256
2.540;-1.946687;-0.224287
2.550;-1.932155;-0.232623
2.560;-1.919685;-0.239501
2.570;-1.910197;-0.245071
2.580;-1.904099;-0.249470
2.590;-1.901236;-0.252865
2.600;-1.900990;-0.255470
2.610;-1.902472;-0.257576
2.620;-1.904753;-0.259584
2.630;-1.907075;-0.261971
2.640;-1.908960;-0.265169
2.650;-1.910232;-0.269424
2.660;-1.910962;-0.274722
2.670;-1.911392;-0.280830
2.680;-1.911881;-0.287390
2.690;-1.912864;-0.294010
2.700;-1.914826;-0.300316
2.710;-1.918255;-0.305980
2.720;-1.923560;-0.310739
2.730;-1.930975;-0.314420
2.740;-1.940481;-0.316966
2.750;-1.951775;-0.318455
2.760;-1.964300;-0.319087
2.770;-1.977308;-0.319146
2.780;-1.989933;-0.318926
2.790;-2.001289;-0.318653
2.800;-2.010636;-0.318400
2.810;-2.017560;-0.318050
2.820;-2.022104;-0.317316
2.830;-2.024763;-0.315854
2.840;-2.026312;-0.313403
2.850;-2.027545;-0.309893
2.860;-2.029029;-0.305493
2.870;-2.030985;-0.300566
2.880;-2.033301;-0.295582
2.890;-2.035620;-0.290981
2.900;-2.037450;-0.287041
2.910;-2.038264;-0.283754
2.920;-2.037616;-0.280792
2.930;-2.035255;-0.277599
2.940;-2.031225;-0.273623
2.950;-2.025875;-0.268585
2.960;-2.019762;-0.262654
2.970;-2.013461;-0.256419
2.980;-2.007374;-0.250665
2.990;-2.001590;-0.246070
3.000;-1.995835;-0.242981
3.010;-1.989541;-0.241376
3.020;-1.982023;-0.241008
3.030;-1.972733;-0.241607
3.040;-1.961479;-0.243000
3.050;-1.948539;-0.245084
3.060;-1.934617;-0.247706
3.070;-1.920670;-0.250583
3.080;-1.907633;-0.253325
3.090;-1.896154;-0.255547
3.100;-1.886418;-0.256969
3.110;-1.878127;-0.257437
3.120;-1.870612;-0.256891
3.130;-1.863026;-0.255348
3.140;-1.854568;-0.252931
3.150;-1.844688;-0.249938
3.160;-1.833221;-0.246853
3.170;-1.820423;-0.244264
3.180;-1.806863;-0.242693
3.190;-1.793196;-0.242393
3.200;-1.779912;-0.243200
3.210;-1.767155;-0.244532
3.220;-1.754701;-0.245542
3.230;-1.742082;-0.245395
3.240;-1.728769;-0.243554
3.250;-1.714351;-0.239977
3.260;-1.698656;-0.235135
3.270;-1.681814;-0.229822
3.280;-1.664261;-0.224859
3.290;-1.646668;-0.220815
3.300;-1.629813;-0.217877
3.310;-1.614424;-0.215898
3.320;-1.601010;-0.214585
3.330;-1.589729;-0.213733
3.340;-1.580339;-0.213407
3.350;-1.572296;-0.213956
3.360;-1.564985;-0.215836
3.370;-1.558026;-0.219321
3.380;-1.551503;-0.224296
3.390;-1.546008;-0.230244
3.400;-1.542422;-0.236446
3.410;-1.541517;-0.242232
3.420;-1.543549;-0.247176
3.430;-1.548066;-0.251166
3.440;-1.554002;-0.254355
3.450;-1.560043;-0.257057
3.460;-1.565068;-0.259615
3.470;-1.568512;-0.262263
3.480;-1.570491;-0.265029
3.490;-1.571690;-0.267708
3.500;-1.573090;-0.269960
3.510;-1.575660;-0.271522
3.520;-1.580116;-0.272412
3.530;-1.586768;-0.272994
3.540;-1.595470;-0.273850
3.550;-1.605677;-0.275522
3.560;-1.616606;-0.278273
3.570;-1.627485;-0.282002
3.580;-1.637803;-0.286346
3.590;-1.647478;-0.290874
3.600;-1.656850;-0.295275
3.610;-1.666494;-0.299433
3.620;-1.676937;-0.303405
3.630;-1.688394;-0.307356
3.640;-1.700665;-0.311490
3.650;-1.713212;-0.315999
3.660;-1.725420;-0.321031
3.670;-1.736896;-0.326679
3.680;-1.747684;-0.332948
3.690;-1.758259;-0.339712
3.700;-1.769283;-0.346717
3.710;-1.781236;-0.353644
3.720;-1.794097;-0.360212
3.730;-1.807245;-0.366246
3.740;-1.819663;-0.371675
3.750;-1.830345;-0.376490
3.760;-1.838740;-0.380704
3.770;-1.844981;-0.384320
3.780;-1.849817;-0.387331
3.790;-1.854275;-0.389721
3.800;-1.859217;-0.391478
3.810;-1.865015;-0.392625
3.820;-1.871457;-0.393277
3.830;-1.877912;-0.393693
3.840;-1.883649;-0.394262
3.850;-1.888148;-0.395386
3.860;-1.891298;-0.397295
3.870;-1.893417;-0.399901
3.880;-1.895103;-0.402767
3.890;-1.896991;-0.405221
3.900;-1.899521;-0.406559
3.910;-1.902810;-0.406259
3.920;-1.906672;-0.404139
3.930;-1.910765;-0.400408
3.940;-1.914795;-0.395590
3.950;-1.918671;-0.390370
3.960;-1.922562;-0.385384
3.970;-1.926826;-0.381058
3.980;-1.931892;-0.377516
3.990;-1.938162;-0.374606
4.000;-1.945952;-0.372015
4.010;-1.955451;-0.369411
4.020;-1.966650;-0.366567
4.030;-1.979262;-0.363403
4.040;-1.992679;-0.359967
4.050;-2.006019;-0.356369
4.060;-2.018280;-0.352718
4.070;-2.028527;-0.349073
4.080;-2.036064;-0.345431
4.090;-2.040546;-0.341760
4.100;-2.042027;-0.338055
4.110;-2.040963;-0.334397
4.120;-2.038150;-0.330982
4.130;-2.034575;-0.328075
4.140;-2.031214;-0.325918
4.150;-2.028827;-0.324625
4.160;-2.027873;-0.324141
4.170;-2.028567;-0.324255
4.180;-2.031016;-0.324693
4.190;-2.035309;-0.325201
4.200;-2.041477;-0.325599
4.210;-2.049364;-0.325754
4.220;-2.058499;-0.325533
4.230;-2.068083;-0.324771
4.240;-2.077155;-0.323296
4.250;-2.084869;-0.320976
4.260;-2.090772;-0.317779
4.270;-2.094934;-0.313780
4.280;-2.097901;-0.309131
4.290;-2.100473;-0.303993
4.300;-2.103426;-0.298481
4.310;-2.107246;-0.292663
4.320;-2.111972;-0.286598
4.330;-2.117220;-0.280379
4.340;-2.122356;-0.274140
4.350;-2.126741;-0.268043
4.360;-2.129931;-0.262276
4.370;-2.131771;-0.257071
4.380;-2.132365;-0.252698
4.390;-2.131986;-0.249392
4.400;-2.130937;-0.247236
4.410;-2.129443;-0.246090
4.420;-2.127619;-0.245619
4.430;-2.125540;-0.245418
4.440;-2.123366;-0.245122
4.450;-2.121430;-0.244446
4.460;-2.120199;-0.243125
4.470;-2.120115;-0.240858
4.480;-2.121396;-0.237324
4.490;-2.123924;-0.232307
4.500;-2.127269;-0.225868
4.510;-2.130854;-0.218415
4.520;-2.134171;-0.210635
4.530;-2.136924;-0.203273
4.540;-2.139067;-0.196898
4.550;-2.140722;-0.191727
4.560;-2.142050;-0.187601
4.570;-2.143132;-0.184082
4.580;-2.143932;-0.180637
4.590;-2.144343;-0.176809
4.600;-2.144306;-0.172338
4.610;-2.143927;-0.167209
4.620;-2.143538;-0.161662
4.630;-2.143672;-0.156162
4.640;-2.144917;-0.151318
4.650;-2.147732;-0.147739
4.660;-2.152261;-0.145858
4.670;-2.158245;-0.145747
4.680;-2.165035;-0.147011
4.690;-2.171722;-0.148850
4.700;-2.177344;-0.150314
4.710;-2.181129;-0.150667
4.720;-2.182677;-0.149684
4.730;-2.182022;-0.147752
4.740;-2.179559;-0.145724
4.750;-2.175881;-0.144594
4.760;-2.171584;-0.145116
4.770;-2.167115;-0.147532
4.780;-2.162702;-0.151513
4.790;-2.158423;-0.156349
4.800;-2.154362;-0.161274
4.810;-2.150800;-0.165777
4.820;-2.148302;-0.169760
4.830;-2.147593;-0.173482
4.840;-2.149250;-0.177365
4.850;-2.153333;-0.181762
4.860;-2.159201;-0.186833
4.870;-2.165621;-0.192532
4.880;-2.171166;-0.198689
4.890;-2.174728;-0.205079
4.900;-2.175890;-0.211478
4.910;-2.175008;-0.217678
4.920;-2.172954;-0.223526
4.930;-2.170665;-0.228967
4.940;-2.168723;-0.234077
4.950;-2.167163;-0.239028
4.960;-2.165568;-0.243982
4.970;-2.163368;-0.248961
4.980;-2.160128;-0.253757
4.990;-2.155669;-0.257947
5.000;-2.150026;-0.260999
5.010;-2.143332;-0.262438
5.020;-2.135747;-0.262000
5.030;-2.127455;-0.259736
5.040;-2.118678;-0.256033
5.050;-2.109673;-0.251551
5.060;-2.100678;-0.247074
5.070;-2.091835;-0.243323
5.080;-2.083121;-0.240756
5.090;-2.074343;-0.239444
5.100;-2.065203;-0.239084
5.110;-2.055455;-0.239158
5.120;-2.045089;-0.239172
5.130;-2.034449;-0.238840
5.140;-2.024194;-0.238133
5.150;-2.015084;-0.237171
5.160;-2.007667;-0.236064
5.170;-2.002007;-0.234787
5.180;-1.997594;-0.233184
5.190;-1.993499;-0.231099
5.200;-1.988707;-0.228549
5.210;-1.982471;-0.225799
5.220;-1.974548;-0.223293
5.230;-1.965226;-0.221457
5.240;-1.955146;-0.220503
5.250;-1.945015;-0.220339
5.260;-1.935321;-0.220614
5.270;-1.926166;-0.220836
5.280;-1.917297;-0.220522
5.290;-1.908297;-0.219329
5.300;-1.898875;-0.217148
5.310;-1.889085;-0.214140
5.320;-1.879373;-0.210700
5.330;-1.870404;-0.207346
5.340;-1.862776;-0.204597
5.350;-1.856760;-0.202851
5.360;-1.852208;-0.202329
5.370;-1.848651;-0.203054
5.380;-1.845514;-0.204849
5.390;-1.842332;-0.207339
5.400;-1.838875;-0.209952
5.410;-1.835166;-0.211974
5.420;-1.831387;-0.212664
5.430;-1.827750;-0.211431
5.440;-1.824381;-0.207980
5.450;-1.821309;-0.202385
5.460;-1.818562;-0.195048
5.470;-1.816320;-0.186540
5.480;-1.815028;-0.177420
5.490;-1.815367;-0.168110
5.500;-1.818040;-0.158918
5.510;-1.823460;-0.150142
5.520;-1.831481;-0.142158
5.530;-1.841298;-0.135374
5.540;-1.851594;-0.130079
5.550;-1.860853;-0.126279
5.560;-1.867747;-0.123656
5.570;-1.871459;-0.121666
5.580;-1.871866;-0.119715
5.590;-1.869517;-0.117357
5.600;-1.865417;-0.114441
5.610;-1.860677;-0.111205
5.620;-1.856177;-0.108297
5.630;-1.852357;-0.106663
5.640;-1.849243;-0.107352
5.650;-1.846619;-0.111245
5.660;-1.844243;-0.118836
5.670;-1.841987;-0.130084
5.680;-1.839864;-0.144381
5.690;-1.837986;-0.160617
5.700;-1.836514;-0.177322
5.710;-1.835640;-0.192913
5.720;-1.835562;-0.206020
5.730;-1.836440;-0.215788
5.740;-1.838321;-0.222044
5.750;-1.841077;-0.225204
5.760;-1.844406;-0.225977
5.770;-1.847912;-0.225019
5.780;-1.851229;-0.222716
5.790;-1.854104;-0.219181
5.800;-1.856406;-0.214403
5.810;-1.858067;-0.208407
5.820;-1.859034;-0.201322
5.830;-1.859287;-0.193377
5.840;-1.858887;-0.184868
5.850;-1.857995;-0.176150
5.860;-1.856807;-0.167639
5.870;-1.855434;-0.159766
5.880;-1.853840;-0.152860
5.890;-1.851872;-0.146984
5.900;-1.849410;-0.141834
5.910;-1.846538;-0.136799
5.920;-1.843643;-0.131160
5.930;-1.841372;-0.124325
5.940;-1.840431;-0.115980
5.950;-1.841333;-0.106099
5.960;-1.844192;-0.094840
5.970;-1.848638;-0.082400
5.980;-1.853885;-0.068952
5.990;-1.858908;-0.054675
6.000;-1.862679;-0.039873
6.010;-1.864399;-0.025070
6.020;-1.863702;-0.010996
6.030;-1.860786;0.001556
6.040;-1.856396;0.011947
6.050;-1.851662;0.019894
6.060;-1.847775;0.025530
6.070;-1.845616;0.029307
6.080;-1.845455;0.031766
6.090;-1.846828;0.033312
6.100;-1.848676;0.034105
6.110;-1.849696;0.034145
6.120;-1.848798;0.033487
6.130;-1.845457;0.032479
6.140;-1.839847;0.031900
6.150;-1.832716;0.032880
6.160;-1.825095;0.036613
6.170;-1.818002;0.043967
6.180;-1.812213;0.055160
6.190;-1.808172;0.069619
6.200;-1.805992;0.086097
6.210;-1.805508;0.103009
6.220;-1.806345;0.118869
6.230;-1.807971;0.132682
6.240;-1.809776;0.144134
6.250;-1.811219;0.153538
6.260;-1.812029;0.161602
6.270;-1.812365;0.169116
6.280;-1.812814;0.176674
6.290;-1.814190;0.184512
6.300;-1.817197;0.192491
6.310;-1.822112;0.200218
6.320;-1.828630;0.207231
6.330;-1.835942;0.213189
6.340;-1.843001;0.217994
6.350;-1.848864;0.221838
6.360;-1.852975;0.225170
6.370;-1.855302;0.228607
6.380;-1.856345;0.232775
6.390;-1.857020;0.238138
6.400;-1.858466;0.244824
6.410;-1.861797;0.252544
6.420;-1.867837;0.260623
6.430;-1.876919;0.268134
6.440;-1.888810;0.274114
6.450;-1.902783;0.277774
6.460;-1.917787;0.278676
6.470;-1.932661;0.276821
6.480;-1.946345;0.272628
6.490;-1.958060;0.266798
6.500;-1.967414;0.260099
6.510;-1.974389;0.253137
6.520;-1.979225;0.246200
6.530;-1.982253;0.239235
6.540;-1.983767;0.231941
6.550;-1.983961;0.223934
6.560;-1.982925;0.214913
6.570;-1.980687;0.204799
6.580;-1.977304;0.193790
6.590;-1.972955;0.182318
6.600;-1.968002;0.170916
6.610;-1.962984;0.160073
6.620;-1.958534;0.150104
6.630;-1.955252;0.141074
6.640;-1.953546;0.132796
6.650;-1.953518;0.124913
6.660;-1.954937;0.117051
6.670;-1.957329;0.108923
6.680;-1.960127;0.100325
6.690;-1.962811;0.091032
6.700;-1.964985;0.080675
6.710;-1.966385;0.068714
6.720;-1.966816;0.054552
6.730;-1.966080;0.037763
6.740;-1.963940;0.018363
6.750;-1.960169;-0.003055
6.760;-1.954688;-0.025392
6.770;-1.947711;-0.047339
6.780;-1.939831;-0.067745
6.790;-1.931972;-0.085941
6.800;-1.925200;-0.101926
6.810;-1.920451;-0.116387
6.820;-1.918277;-0.130572
6.830;-1.918671;-0.146029
6.840;-1.921018;-0.164228
6.850;-1.924206;-0.186170
6.860;-1.926858;-0.212059
6.870;-1.927660;-0.241159
6.880;-1.925676;-0.271880
6.890;-1.920586;-0.302106
6.900;-1.912803;-0.329669
6.910;-1.903440;-0.352830
6.920;-1.894149;-0.370585
6.930;-1.886833;-0.382705
6.940;-1.883289;-0.389506
6.950;-1.884828;-0.391488
6.960;-1.891953;-0.389029
6.970;-1.904147;-0.382264
6.980;-1.919882;-0.371154
6.990;-1.936886;-0.355690
7.000;-1.952656;-0.336124
7.010;-1.965083;-0.313126
7.020;-1.972984;-0.287796
7.030;-1.976372;-0.261490
7.040;-1.976373;-0.235531
7.050;-1.974827;-0.210882
7.060;-1.973722;-0.187923
7.070;-1.974603;-0.166411
7.080;-1.978165;-0.145649
7.090;-1.984127;-0.124806
7.100;-1.991439;-0.103261
7.110;-1.998709;-0.080817
7.120;-2.004697;-0.057737
7.130;-2.008653;-0.034620
7.140;-2.010447;-0.012189
7.150;-2.010496;0.008912
7.160;-2.009582;0.028266
7.170;-2.008636;0.045716
7.180;-2.008540;0.061303
7.190;-2.009966;0.075141
7.200;-2.013272;0.087322
7.210;-2.018453;0.097859
7.220;-2.025152;0.106677
7.230;-2.032736;0.113645
7.240;-2.040433;0.118612
7.250;-2.047506;0.121486
7.260;-2.053433;0.122312
7.270;-2.058018;0.121328
7.280;-2.061416;0.118958
7.290;-2.064027;0.115715
7.300;-2.066309;0.112072
7.310;-2.068565;0.108336
7.320;-2.070799;0.104575
7.330;-2.072737;0.100651
7.340;-2.073993;0.096319
7.350;-2.074306;0.091365
7.360;-2.073709;0.085698
7.370;-2.072542;0.079347
7.380;-2.071341;0.072387
7.390;-2.070663;0.064840
7.400;-2.070944;0.056620
7.410;-2.072409;0.047553
7.420;-2.075036;0.037492
7.430;-2.078588;0.026470
7.440;-2.082671;0.014779
7.450;-2.086793;0.002921
7.460;-2.090426;-0.008580
7.470;-2.093074;-0.019399
7.480;-2.094357;-0.029546
7.490;-2.094115;-0.039350
7.500;-2.092491;-0.049324
7.510;-2.089914;-0.060017
7.520;-2.086945;-0.071911
7.530;-2.084026;-0.085401
7.540;-2.081239;-0.100771
7.550;-2.078249;-0.118134
7.560;-2.074443;-0.137325
7.570;-2.069229;-0.157814
7.580;-2.062315;-0.178719
7.590;-2.053881;-0.198932
7.600;-2.044595;-0.217322
7.610;-2.035519;-0.232939
7.620;-2.027932;-0.245147
7.630;-2.023123;-0.253667
7.640;-2.022165;-0.258568
7.650;-2.025724;-0.260219
7.660;-2.033904;-0.259234
7.670;-2.046144;-0.256390
7.680;-2.061191;-0.252479
7.690;-2.077202;-0.248126
7.700;-2.092024;-0.243640
7.710;-2.103602;-0.238979
7.720;-2.110434;-0.233844
7.730;-2.111925;-0.227863
7.740;-2.108525;-0.220757
