Time[s];COPx[cm];COPy[cm]
0.010;-2.542141;-1.662857
0.020;-2.557838;-1.660432
0.030;-2.573419;-1.658108
0.040;-2.588752;-1.655996
0.050;-2.603713;-1.654219
0.060;-2.618222;-1.652857
0.070;-2.632275;-1.651876
0.080;-2.645967;-1.651121
0.090;-2.659493;-1.650358
0.100;-2.673118;-1.649350
0.110;-2.687128;-1.647958
0.120;-2.701762;-1.646220
0.130;-2.717127;-1.644411
0.140;-2.733120;-1.643031
0.150;-2.749413;-1.642732
0.160;-2.765519;-1.644188
0.170;-2.780957;-1.647953
0.180;-2.795449;-1.654381
0.190;-2.809074;-1.663596
0.200;-2.822330;-1.675524
0.210;-2.836084;-1.689924
0.220;-2.851421;-1.706425
0.230;-2.869406;-1.724543
0.240;-2.890821;-1.743694
0.250;-2.915948;-1.763243
0.260;-2.944470;-1.782601
0.270;-2.975517;-1.801337
0.280;-3.007801;-1.819281
0.290;-3.039802;-1.836566
0.300;-3.069961;-1.853615
0.310;-3.096911;-1.871039
0.320;-3.119735;-1.889470
0.330;-3.138250;-1.909382
0.340;-3.153186;-1.930972
0.350;-3.166177;-1.954147
0.360;-3.179493;-1.978561
0.370;-3.195519;-2.003621
0.380;-3.216092;-2.028432
0.390;-3.241936;-2.051757
0.400;-3.272397;-2.072092
0.410;-3.305604;-2.087905
0.420;-3.338981;-2.097975
0.430;-3.369948;-2.101686
0.440;-3.396556;-2.099141
0.450;-3.417855;-2.091058
0.460;-3.433900;-2.078520
0.470;-3.445458;-2.062690
0.480;-3.453585;-2.044593
0.490;-3.459254;-2.025028
0.500;-3.463154;-2.004594
0.510;-3.465659;-1.983765
0.520;-3.466889;-1.962944
0.530;-3.466805;-1.942444
0.540;-3.465267;-1.922416
0.550;-3.462092;-1.902781
0.560;-3.457082;-1.883207
0.570;-3.450040;-1.863175
0.580;-3.440752;-1.842137
0.590;-3.428967;-1.819683
0.600;-3.414379;-1.795661
0.610;-3.396666;-1.770170
0.620;-3.375579;-1.743451
0.630;-3.351046;-1.715739
0.640;-3.323248;-1.687135
0.650;-3.292602;-1.657580
0.660;-3.259660;-1.626946
0.670;-3.224981;-1.595201
0.680;-3.189035;-1.562567
0.690;-3.152204;-1.529586
0.700;-3.114817;-1.497050
0.710;-3.077181;-1.465827
0.720;-3.039549;-1.436618
0.730;-3.002018;-1.409772
0.740;-2.964435;-1.385227
0.750;-2.926378;-1.362624
0.760;-2.887280;-1.341526
0.770;-2.846680;-1.321640
0.780;-2.804526;-1.302953
0.790;-2.761399;-1.285725
0.800;-2.718515;-1.270366
0.810;-2.677500;-1.257215
0.820;-2.640001;-1.246326
0.830;-2.607298;-1.237350
0.840;-2.580052;-1.229663
0.850;-2.558241;-1.222696
0.860;-2.541305;-1.216309
0.870;-2.528413;-1.210952
0.880;-2.518744;-1.207500
0.890;-2.511660;-1.206822
0.900;-2.506713;-1.209311
0.910;-2.503516;-1.214621
0.920;-2.501608;-1.221671
0.930;-2.500403;-1.228903
0.940;-2.499262;-1.234656
0.950;-2.497631;-1.237553
0.960;-2.495172;-1.236823
0.970;-2.491818;-1.232466
0.980;-2.487778;-1.225197
0.990;-2.483485;-1.216169
1.000;-2.479510;-1.206536
1.010;-2.476461;-1.197035
1.020;-2.474907;-1.187769
1.030;-2.475331;-1.178263
1.040;-2.478087;-1.167767
1.050;-2.483334;-1.155608
1.060;-2.490964;-1.141481
1.070;-2.500542;-1.125564
1.080;-2.511301;-1.108494
1.090;-2.522201;-1.091236
1.100;-2.532065;-1.074924
1.110;-2.539793;-1.060716
1.120;-2.544618;-1.049704
1.130;-2.546294;-1.042829
1.140;-2.545121;-1.040801
1.150;-2.541787;-1.044000
1.160;-2.537107;-1.052415
1.170;-2.531794;-1.065670
1.180;-2.526341;-1.083125
1.190;-2.521018;-1.104054
1.200;-2.515926;-1.127847
1.210;-2.511065;-1.154176
1.220;-2.506396;-1.183004
1.230;-2.501947;-1.214432
1.240;-2.497920;-1.248416
1.250;-2.494758;-1.284536
1.260;-2.493093;-1.321908
1.270;-2.493561;-1.359262
1.280;-2.496548;-1.395131
1.290;-2.501998;-1.428099
1.300;-2.509385;-1.457047
1.310;-2.517884;-1.481374
1.320;-2.526645;-1.501123
1.330;-2.535063;-1.516940
1.340;-2.542911;-1.529858
1.350;-2.550320;-1.540995
1.360;-2.557613;-1.551300
1.370;-2.565102;-1.561435
1.380;-2.572930;-1.571785
1.390;-2.581057;-1.582530
1.400;-2.589367;-1.593705
1.410;-2.597824;-1.605201
1.420;-2.606556;-1.616764
1.430;-2.615838;-1.627996
1.440;-2.625984;-1.638392
1.450;-2.637205;-1.647390
1.460;-2.649510;-1.654456
1.470;-2.662686;-1.659201
1.480;-2.676364;-1.661503
1.490;-2.690129;-1.661547
1.500;-2.703586;-1.659747
1.510;-2.716346;-1.656571
1.520;-2.727968;-1.652368
1.530;-2.737934;-1.647262
1.540;-2.745725;-1.641140
1.550;-2.750978;-1.633743
1.560;-2.753650;-1.624813
1.570;-2.754124;-1.614255
1.580;-2.753180;-1.602264
1.590;-2.751836;-1.589363
1.600;-2.751100;-1.576329
1.610;-2.751716;-1.564010
1.620;-2.754001;-1.553058
1.630;-2.757816;-1.543685
1.640;-2.762680;-1.535516
1.650;-2.767955;-1.527646
1.660;-2.773057;-1.518891
1.670;-2.777618;-1.508186
1.680;-2.781537;-1.494959
1.690;-2.784957;-1.479362
1.700;-2.788184;-1.462254
1.710;-2.791614;-1.444953
1.720;-2.795648;-1.428832
1.730;-2.800612;-1.414897
1.740;-2.806689;-1.403498
1.750;-2.813897;-1.394292
1.760;-2.822123;-1.386467
1.770;-2.831170;-1.379103
1.780;-2.840818;-1.371469
1.790;-2.850867;-1.363181
1.800;-2.861195;-1.354175
1.810;-2.871822;-1.344609
1.820;-2.882965;-1.334789
1.830;-2.895036;-1.325154
1.840;-2.908568;-1.316291
1.850;-2.924108;-1.308889
1.860;-2.942085;-1.303596
1.870;-2.962728;-1.300811
1.880;-2.986005;-1.300498
1.890;-3.011589;-1.302119
1.900;-3.038875;-1.304745
1.910;-3.067018;-1.307293
1.920;-3.095032;-1.308793
1.930;-3.121896;-1.308563
1.940;-3.146681;-1.306250
1.950;-3.168660;-1.301787
1.960;-3.187376;-1.295324
1.970;-3.202671;-1.287186
1.980;-3.214635;-1.277849
1.990;-3.223525;-1.267905
2.000;-3.229677;-1.257994
2.010;-3.233502;-1.248676
2.020;-3.235557;-1.240286
2.030;-3.236660;-1.232821
2.040;-3.237913;-1.225921
2.050;-3.240562;-1.218982
2.060;-3.245701;-1.211385
2.070;-3.253954;-1.202751
2.080;-3.265300;-1.193123
2.090;-3.279131;-1.183002
2.100;-3.294484;-1.173226
2.110;-3.310328;-1.164753
2.120;-3.325800;-1.158431
2.130;-3.340296;-1.154826
2.140;-3.353455;-1.154148
2.150;-3.365046;-1.156256
2.160;-3.374849;-1.160746
2.170;-3.382589;-1.167077
2.180;-3.387949;-1.174741
2.190;-3.390648;-1.183383
2.200;-3.390530;-1.192852
2.210;-3.387580;-1.203137
2.220;-3.381861;-1.214251
2.230;-3.373373;-1.226108
2.240;-3.361964;-1.238440
2.250;-3.347337;-1.250766
2.260;-3.329165;-1.262407
2.270;-3.307268;-1.272591
2.280;-3.281773;-1.280641
2.290;-3.253196;-1.286230
2.300;-3.222406;-1.289569
2.310;-3.190487;-1.291446
2.320;-3.158569;-1.293048
2.330;-3.127677;-1.295613
2.340;-3.098625;-1.300027
2.350;-3.071962;-1.306543
2.360;-3.047962;-1.314726
2.370;-3.026650;-1.323674
2.380;-3.007861;-1.332409
2.390;-2.991309;-1.340280
2.400;-2.976647;-1.347206
2.410;-2.963516;-1.353658
2.420;-2.951589;-1.360420
2.430;-2.940625;-1.368213
2.440;-2.930516;-1.377350
2.450;-2.921303;-1.387519
2.460;-2.913118;-1.397750
2.470;-2.906083;-1.406591
2.480;-2.900230;-1.412460
2.490;-2.895505;-1.414078
2.500;-2.891865;-1.410869
2.510;-2.889379;-1.403164
2.520;-2.888274;-1.392146
2.530;-2.888871;-1.379534
2.540;-2.891451;-1.367147
2.550;-2.896117;-1.356472
2.560;-2.902712;-1.348382
2.570;-2.910823;-1.343047
2.580;-2.919876;-1.340054
2.590;-2.929258;-1.338682
2.600;-2.938417;-1.338260
2.610;-2.946917;-1.338438
2.620;-2.954431;-1.339280
2.630;-2.960742;-1.341133
2.640;-2.965746;-1.344388
2.650;-2.969469;-1.349245
2.660;-2.972035;-1.355586
2.670;-2.973615;-1.362966
2.680;-2.974373;-1.370724
2.690;-2.974460;-1.378184
2.700;-2.974064;-1.384896
2.710;-2.973456;-1.390866
2.720;-2.973002;-1.396677
2.730;-2.973131;-1.403437
2.740;-2.974262;-1.412529
2.750;-2.976710;-1.425266
2.760;-2.980629;-1.442558
2.770;-2.985988;-1.464694
2.780;-2.992615;-1.491247
2.790;-3.000263;-1.521100
2.800;-3.008651;-1.552583
2.810;-3.017491;-1.583701
2.820;-3.026505;-1.612415
2.830;-3.035456;-1.636925
2.840;-3.044205;-1.655925
2.850;-3.052767;-1.668786
2.860;-3.061332;-1.675623
2.870;-3.070211;-1.677194
2.880;-3.079729;-1.674670
2.890;-3.090107;-1.669340
2.900;-3.101401;-1.662339
2.910;-3.113556;-1.654465
2.920;-3.126513;-1.646080
2.930;-3.140306;-1.637148
2.940;-3.155062;-1.627397
2.950;-3.170891;-1.616574
2.960;-3.187744;-1.604717
2.970;-3.205337;-1.592276
2.980;-3.223218;-1.580025
2.990;-3.240933;-1.568794
3.000;-3.258245;-1.559162
3.010;-3.275287;-1.551257
3.020;-3.292619;-1.544747
3.030;-3.311145;-1.538958
3.040;-3.331917;-1.533059
3.050;-3.355828;-1.526234
3.060;-3.383274;-1.517850
3.070;-3.413888;-1.507586
3.080;-3.446485;-1.495484
3.090;-3.479237;-1.481876
3.100;-3.510034;-1.467188
3.110;-3.536907;-1.451717
3.120;-3.558402;-1.435483
3.130;-3.573807;-1.418242
3.140;-3.583209;-1.399636
3.150;-3.587416;-1.379401
3.160;-3.587797;-1.357518
3.170;-3.586064;-1.334268
3.180;-3.584008;-1.310158
3.190;-3.583213;-1.285758
3.200;-3.584809;-1.261538
3.210;-3.589343;-1.237752
3.220;-3.596770;-1.214434
3.230;-3.606554;-1.191476
3.240;-3.617814;-1.168735
3.250;-3.629477;-1.146122
3.260;-3.640451;-1.123617
3.270;-3.649812;-1.101213
3.280;-3.656952;-1.078864
3.290;-3.661655;-1.056475
3.300;-3.664022;-1.034002
3.310;-3.664318;-1.011593
3.320;-3.662797;-0.989668
3.330;-3.659594;-0.968880
3.340;-3.654724;-0.949941
3.350;-3.648173;-0.933417
3.360;-3.640030;-0.919598
3.370;-3.630584;-0.908474
3.380;-3.620326;-0.899810
3.390;-3.609855;-0.893243
3.400;-3.599739;-0.888383
3.410;-3.590390;-0.884918
3.420;-3.582020;-0.882675
3.430;-3.574686;-0.881622
3.440;-3.568371;-0.881785
3.450;-3.563037;-0.883142
3.460;-3.558622;-0.885551
3.470;-3.554981;-0.888759
3.480;-3.551842;-0.892518
3.490;-3.548783;-0.896746
3.500;-3.545243;-0.901672
3.510;-3.540562;-0.907865
3.520;-3.534080;-0.916154
3.530;-3.525273;-0.927458
3.540;-3.513905;-0.942628
3.550;-3.500106;-0.962339
3.560;-3.484363;-0.987056
3.570;-3.467398;-1.017000
3.580;-3.449967;-1.052106
3.590;-3.432678;-1.091959
3.600;-3.415866;-1.135784
3.610;-3.399582;-1.182536
3.620;-3.383688;-1.231119
3.630;-3.367992;-1.280647
3.640;-3.352381;-1.330605
3.650;-3.336902;-1.380814
3.660;-3.321758;-1.431232
3.670;-3.307235;-1.481719
3.680;-3.293595;-1.531908
3.690;-3.280991;-1.581221
3.700;-3.269476;-1.628993
3.710;-3.259098;-1.674609
3.720;-3.250040;-1.717564
3.730;-3.242697;-1.757430
3.740;-3.237634;-1.793766
3.750;-3.235427;-1.826047
3.760;-3.236478;-1.853681
3.770;-3.240878;-1.876103
3.780;-3.248392;-1.892924
3.790;-3.258557;-1.904068
3.800;-3.270840;-1.909845
3.810;-3.284738;-1.910935
3.820;-3.299796;-1.908275
3.830;-3.315547;-1.902865
3.840;-3.331466;-1.895563
3.850;-3.346975;-1.886931
3.860;-3.361481;-1.877221
3.870;-3.374406;-1.866498
3.880;-3.385187;-1.854838
3.890;-3.393283;-1.842462
3.900;-3.398202;-1.829739
3.910;-3.399557;-1.817026
3.920;-3.397106;-1.804452
3.930;-3.390762;-1.791768
3.940;-3.380573;-1.778348
3.950;-3.366684;-1.763359
3.960;-3.349320;-1.746009
3.970;-3.328785;-1.725788
3.980;-3.305513;-1.702626
3.990;-3.280105;-1.676941
4.000;-3.253324;-1.649577
4.010;-3.226018;-1.621656
4.020;-3.199021;-1.594376
4.030;-3.173045;-1.568782
4.040;-3.148614;-1.545562
4.050;-3.126031;-1.524957
4.060;-3.105363;-1.506831
4.070;-3.086469;-1.490902
4.080;-3.069066;-1.476999
4.090;-3.052829;-1.465214
4.100;-3.037511;-1.455864
4.110;-3.023017;-1.449315
4.120;-3.009426;-1.445759
4.130;-2.996955;-1.445079
4.140;-2.985909;-1.446828
4.150;-2.976660;-1.450324
4.160;-2.969660;-1.454781
4.170;-2.965463;-1.459418
4.180;-2.964662;-1.463500
4.190;-2.967720;-1.466370
4.200;-2.974725;-1.467485
4.210;-2.985187;-1.466488
4.220;-2.997998;-1.463273
4.230;-3.011628;-1.458030
4.240;-3.024465;-1.451230
4.250;-3.035181;-1.443581
4.260;-3.043003;-1.435940
4.270;-3.047829;-1.429216
4.280;-3.050204;-1.424238
4.290;-3.051140;-1.421614
4.300;-3.051836;-1.421563
4.310;-3.053346;-1.423800
4.320;-3.056305;-1.427528
4.330;-3.060801;-1.431597
4.340;-3.066418;-1.434804
4.350;-3.072395;-1.436250
4.360;-3.077822;-1.435636
4.370;-3.081777;-1.433358
4.380;-3.083419;-1.430366
4.390;-3.082067;-1.427827
4.400;-3.077291;-1.426741
4.410;-3.069014;-1.427707
4.420;-3.057595;-1.430922
4.430;-3.043848;-1.436354
4.440;-3.028940;-1.443938
4.450;-3.014192;-1.453644
4.460;-3.000800;-1.465378
4.470;-2.989586;-1.478786
4.480;-2.980835;-1.493121
4.490;-2.974291;-1.507280
4.500;-2.969294;-1.520057
4.510;-2.965009;-1.530547
4.520;-2.960667;-1.538513
4.530;-2.955750;-1.544556
4.540;-2.950090;-1.549949
4.550;-2.943908;-1.556177
4.560;-2.937807;-1.564366
4.570;-2.932693;-1.574854
4.580;-2.929610;-1.587104
4.590;-2.929490;-1.599972
4.600;-2.932886;-1.612173
4.610;-2.939799;-1.622715
4.620;-2.949656;-1.631128
4.630;-2.961452;-1.637454
4.640;-2.973993;-1.642068
4.650;-2.986144;-1.645447
4.660;-2.997004;-1.647953
4.670;-3.005992;-1.649694
4.680;-3.012854;-1.650462
4.690;-3.017636;-1.649770
4.700;-3.020669;-1.646988
4.710;-3.022521;-1.641544
4.720;-3.023924;-1.633085
4.730;-3.025598;-1.621564
4.740;-3.028061;-1.607231
4.750;-3.031466;-1.590585
4.760;-3.035584;-1.572282
4.770;-3.039932;-1.553005
4.780;-3.044004;-1.533312
4.790;-3.047504;-1.513514
4.800;-3.050500;-1.493654
4.810;-3.053447;-1.473611
4.820;-3.057074;-1.453274
4.830;-3.062146;-1.432681
4.840;-3.069192;-1.412074
4.850;-3.078280;-1.391842
4.860;-3.088925;-1.372387
4.870;-3.100151;-1.354001
4.880;-3.110663;-1.336785
4.890;-3.119073;-1.320669
4.900;-3.124138;-1.305511
4.910;-3.124964;-1.291196
4.920;-3.121166;-1.277663
4.930;-3.112928;-1.264831
4.940;-3.100963;-1.252517
4.950;-3.086347;-1.240415
4.960;-3.070281;-1.228202
4.970;-3.053864;-1.215704
4.980;-3.037949;-1.203031
4.990;-3.023080;-1.190584
5.000;-3.009475;-1.178956
5.010;-2.997023;-1.168790
5.020;-2.985320;-1.160693
5.030;-2.973806;-1.155254
5.040;-2.961976;-1.153088
5.050;-2.949594;-1.154820
5.060;-2.936800;-1.160980
5.070;-2.924041;-1.171805
5.080;-2.911878;-1.187054
5.090;-2.900778;-1.205878
5.100;-2.891010;-1.226797
5.110;-2.882656;-1.247813
5.120;-2.875715;-1.266677
5.130;-2.870202;-1.281310
5.140;-2.866174;-1.290293
5.150;-2.863670;-1.293261
5.160;-2.862616;-1.291014
5.170;-2.862790;-1.285251
5.180;-2.863856;-1.278016
5.190;-2.865472;-1.271067
5.200;-2.867412;-1.265402
5.210;-2.869639;-1.261122
5.220;-2.872293;-1.257654
5.230;-2.875612;-1.254212
5.240;-2.879828;-1.250259
5.250;-2.885089;-1.245769
5.260;-2.891437;-1.241177
5.270;-2.898857;-1.237105
5.280;-2.907370;-1.234005
5.290;-2.917103;-1.231926
5.300;-2.928293;-1.230515
5.310;-2.941171;-1.229211
5.320;-2.955801;-1.227547
5.330;-2.971950;-1.225404
5.340;-2.989066;-1.223158
5.350;-3.006372;-1.221678
5.360;-3.023027;-1.222175
5.370;-3.038287;-1.225926
5.380;-3.051646;-1.233942
5.390;-3.062925;-1.246666
5.400;-3.072263;-1.263826
5.410;-3.079995;-1.284497
5.420;-3.086434;-1.307357
5.430;-3.091655;-1.331026
5.440;-3.095388;-1.354340
5.450;-3.097035;-1.376480
5.460;-3.095796;-1.396943
5.470;-3.090838;-1.415407
5.480;-3.081462;-1.431603
5.490;-3.067250;-1.445275
5.500;-3.048163;-1.456251
5.510;-3.024597;-1.464565
5.520;-2.997380;-1.470494
5.530;-2.967694;-1.474448
5.540;-2.936930;-1.476745
5.550;-2.906499;-1.477436
5.560;-2.877623;-1.476306
5.570;-2.851186;-1.473065
5.580;-2.827686;-1.467597
5.590;-2.807317;-1.460127
5.600;-2.790100;-1.451231
5.610;-2.775981;-1.441719
5.620;-2.764845;-1.432462
5.630;-2.756474;-1.424218
5.640;-2.750491;-1.417529
5.650;-2.746382;-1.412678
5.660;-2.743599;-1.409720
5.670;-2.741732;-1.408563
5.680;-2.740660;-1.409070
5.690;-2.740594;-1.411162
5.700;-2.741977;-1.414864
5.710;-2.745298;-1.420264
5.720;-2.750897;-1.427399
5.730;-2.758853;-1.436131
5.740;-2.768975;-1.446092
5.750;-2.780883;-1.456739
5.760;-2.794123;-1.467480
5.770;-2.808237;-1.477783
5.780;-2.822790;-1.487211
5.790;-2.837374;-1.495394
5.800;-2.851629;-1.502000
5.810;-2.865289;-1.506766
5.820;-2.878238;-1.509583
5.830;-2.890578;-1.510605
5.840;-2.902648;-1.510320
5.850;-2.915003;-1.509529
5.860;-2.928316;-1.509209
5.870;-2.943224;-1.510280
5.880;-2.960150;-1.513368
5.890;-2.979159;-1.518655
5.900;-2.999905;-1.525866
5.910;-3.021694;-1.534402
5.920;-3.043637;-1.543562
5.930;-3.064854;-1.552755
5.940;-3.084668;-1.561605
5.950;-3.102729;-1.569959
5.960;-3.119040;-1.577838
5.970;-3.133887;-1.585419
5.980;-3.147709;-1.593044
5.990;-3.160970;-1.601181
6.000;-3.174101;-1.610322
6.010;-3.187518;-1.620826
6.020;-3.201705;-1.632827
6.030;-3.217313;-1.646280
6.040;-3.235207;-1.661164
6.050;-3.256452;-1.677692
6.060;-3.282210;-1.696364
6.070;-3.313549;-1.717780
6.080;-3.351177;-1.742295
6.090;-3.395152;-1.769733
6.100;-3.444645;-1.799363
6.110;-3.497890;-1.830151
6.120;-3.552373;-1.861131
6.130;-3.605280;-1.891698
6.140;-3.654091;-1.921656
6.150;-3.697127;-1.951072
6.160;-3.733874;-1.979994
6.170;-3.764994;-2.008209
6.180;-3.792040;-2.035144
6.190;-3.816958;-2.059979
6.200;-3.841535;-2.081924
6.210;-3.866945;-2.100509
6.220;-3.893508;-2.115742
6.230;-3.920719;-2.128012
6.240;-3.947484;-2.137796
6.250;-3.972484;-2.145314
6.260;-3.994534;-2.150344
6.270;-4.012866;-2.152307
6.280;-4.027268;-2.150551
6.290;-4.038081;-2.144683
6.300;-4.046093;-2.134753
6.310;-4.052397;-2.121260
6.320;-4.058228;-2.104994
6.330;-4.064801;-2.086822
6.340;-4.073143;-2.067470
6.350;-4.083928;-2.047404
6.360;-4.097340;-2.026817
6.370;-4.113000;-2.005738
6.380;-4.129990;-1.984172
6.390;-4.146956;-1.962197
6.400;-4.162301;-1.939967
6.410;-4.174413;-1.917655
6.420;-4.181864;-1.895441
6.430;-4.183540;-1.873579
6.440;-4.178695;-1.852501
6.450;-4.166952;-1.832861
6.460;-4.148283;-1.815485
6.470;-4.122973;-1.801204
6.480;-4.091569;-1.790637
6.490;-4.054839;-1.783999
6.500;-4.013748;-1.780969
6.510;-3.969438;-1.780706
6.520;-3.923191;-1.782003
6.530;-3.876334;-1.783557
6.540;-3.830117;-1.784294
6.550;-3.785564;-1.783638
6.560;-3.743321;-1.781657
6.570;-3.703522;-1.779012
6.580;-3.665718;-1.776737
6.590;-3.628912;-1.775897
6.600;-3.591713;-1.777287
6.610;-3.552601;-1.781249
6.620;-3.510267;-1.787684
6.630;-3.463953;-1.796203
6.640;-3.413678;-1.806350
6.650;-3.360263;-1.817783
6.660;-3.305163;-1.830369
6.670;-3.250171;-1.844184
6.680;-3.197144;-1.859458
6.690;-3.147810;-1.876504
6.700;-3.103683;-1.895658
6.710;-3.066027;-1.917189
6.720;-3.035812;-1.941192
6.730;-3.013658;-1.967462
6.740;-2.999786;-1.995432
6.750;-2.994002;-2.024226
6.760;-2.995735;-2.052804
6.770;-3.004102;-2.080160
6.780;-3.018003;-2.105526
6.790;-3.036198;-2.128522
6.800;-3.057371;-2.149246
6.810;-3.080177;-2.168284
6.820;-3.103318;-2.186589
6.830;-3.125637;-2.205256
6.840;-3.146216;-2.225231
6.850;-3.164435;-2.247071
6.860;-3.179967;-2.270828
6.870;-3.192718;-2.296044
6.880;-3.202755;-2.321840
6.890;-3.210195;-2.347078
6.900;-3.215083;-2.370600
6.910;-3.217263;-2.391475
6.920;-3.216311;-2.409181
6.930;-3.211593;-2.423625
6.940;-3.202464;-2.435005
6.950;-3.188551;-2.443555
6.960;-3.170005;-2.449351
6.970;-3.147613;-2.452280
6.980;-3.122699;-2.452185
6.990;-3.096850;-2.449057
7.000;-3.071571;-2.443138
7.010;-3.047959;-2.434906
7.020;-3.026514;-2.424976
7.030;-3.007100;-2.413990
7.040;-2.989099;-2.402551
7.050;-2.971683;-2.391198
7.060;-2.954108;-2.380380
7.070;-2.935938;-2.370379
7.080;-2.917134;-2.361195
7.090;-2.898044;-2.352476
7.100;-2.879339;-2.343564
7.110;-2.861904;-2.333716
7.120;-2.846693;-2.322402
7.130;-2.834552;-2.309533
7.140;-2.826049;-2.295511
7.150;-2.821363;-2.281077
7.160;-2.820284;-2.267050
7.170;-2.822310;-2.254079
7.180;-2.826764;-2.242491
7.190;-2.832867;-2.232267
7.200;-2.839748;-2.223128
7.210;-2.846459;-2.214672
7.220;-2.852018;-2.206527
7.230;-2.855508;-2.198478
7.240;-2.856203;-2.190541
7.250;-2.853676;-2.182973
7.260;-2.847863;-2.176193
7.270;-2.839071;-2.170630
7.280;-2.827922;-2.166542
7.290;-2.815269;-2.163859
7.300;-2.802082;-2.162113
7.310;-2.789330;-2.160501
7.320;-2.777875;-2.158108
7.330;-2.768425;-2.154222
7.340;-2.761502;-2.148579
7.350;-2.757422;-2.141414
7.360;-2.756278;-2.133258
7.370;-2.757943;-2.124635
7.380;-2.762120;-2.115795
7.390;-2.768407;-2.106604
7.400;-2.776365;-2.096591
7.410;-2.785536;-2.085142
7.420;-2.795459;-2.071739
7.430;-2.805705;-2.056223
7.440;-2.815950;-2.038972
7.450;-2.826053;-2.020980
7.460;-2.836078;-2.003758
7.470;-2.846232;-1.989073
7.480;-2.856722;-1.978567
7.490;-2.867604;-1.973401
7.500;-2.878688;-1.974039
7.510;-2.889594;-1.980231
7.520;-2.899912;-1.991188
7.530;-2.909419;-2.005826
7.540;-2.918236;-2.023001
7.550;-2.926848;-2.041669
7.560;-2.935966;-2.060987
7.570;-2.946287;-2.080352
7.580;-2.958223;-2.099399
7.590;-2.971729;-2.117964
7.600;-2.986302;-2.136063
7.610;-3.001154;-2.153860
7.620;-3.015520;-2.171635
7.630;-3.028931;-2.189692
7.640;-3.041340;-2.208207
7.650;-3.053015;-2.227064
7.660;-3.064267;-2.245787
7.670;-3.075151;-2.263632
7.680;-3.085316;-2.279814
