Time[s];COPx[cm];COPy[cm]
0.010;-0.574591;1.159335
0.020;-0.627444;1.171633
0.030;-0.681969;1.182631
0.040;-0.739066;1.191039
0.050;-0.799432;1.195815
0.060;-0.863377;1.196253
0.070;-0.930783;1.192021
0.080;-1.001266;1.183161
0.090;-1.074506;1.170076
0.100;-1.150565;1.153503
0.110;-1.230024;1.134446
0.120;-1.313840;1.114027
0.130;-1.402977;1.093274
0.140;-1.497943;1.072864
0.150;-1.598434;1.052953
0.160;-1.703226;1.033155
0.170;-1.810378;1.012684
0.180;-1.917641;0.990609
0.190;-2.022885;0.966105
0.200;-2.124366;0.938622
0.210;-2.220757;0.907927
0.220;-2.311027;0.874043
0.230;-2.394350;0.837156
0.240;-2.470214;0.797552
0.250;-2.538736;0.755636
0.260;-2.601056;0.712061
0.270;-2.659567;0.667891
0.280;-2.717774;0.624697
0.290;-2.779702;0.584458
0.300;-2.849015;0.549253
0.310;-2.928084;0.520808
0.320;-3.017356;0.500082
0.330;-3.115206;0.487049
0.340;-3.218340;0.480757
0.350;-3.322572;0.479622
0.360;-3.423694;0.481840
0.370;-3.518132;0.485757
0.380;-3.603224;0.490134
0.390;-3.677165;0.494261
0.400;-3.738801;0.497952
0.410;-3.787487;0.501415
0.420;-3.823104;0.505042
0.430;-3.846160;0.509205
0.440;-3.857858;0.514087
0.450;-3.860009;0.519604
0.460;-3.854788;0.525369
0.470;-3.844374;0.530715
0.480;-3.830567;0.534748
0.490;-3.814447;0.536426
0.500;-3.796130;0.534581
0.510;-3.774624;0.527872
0.520;-3.747831;0.514733
0.530;-3.712786;0.493451
0.540;-3.666176;0.462418
0.550;-3.605134;0.420538
0.560;-3.528116;0.367646
0.570;-3.435546;0.304745
0.580;-3.329950;0.233921
0.590;-3.215457;0.157886
0.600;-3.096832;0.079342
0.610;-2.978378;0.000455
0.620;-2.863102;-0.077308
0.630;-2.752357;-0.152904
0.640;-2.645986;-0.225211
0.650;-2.542754;-0.292591
0.660;-2.440851;-0.352782
0.670;-2.338280;-0.403221
0.680;-2.233146;-0.441643
0.690;-2.123933;-0.466746
0.700;-2.009834;-0.478678
0.710;-1.891071;-0.479165
0.720;-1.769061;-0.471194
0.730;-1.646305;-0.458257
0.740;-1.525957;-0.443376
0.750;-1.411174;-0.428268
0.760;-1.304443;-0.412978
0.770;-1.207114;-0.396095
0.780;-1.119277;-0.375362
0.790;-1.039997;-0.348376
0.800;-0.967776;-0.313126
0.810;-0.901119;-0.268328
0.820;-0.839031;-0.213588
0.830;-0.781326;-0.149462
0.840;-0.728627;-0.077384
0.850;-0.682069;0.000572
0.860;-0.642854;0.082065
0.870;-0.611873;0.164865
0.880;-0.589558;0.247135
0.890;-0.575940;0.327559
0.900;-0.570780;0.405353
0.910;-0.573620;0.480192
0.920;-0.583694;0.552110
0.930;-0.599738;0.621421
0.940;-0.619816;0.688703
0.950;-0.641306;0.754816
0.960;-0.661153;0.820870
0.970;-0.676382;0.888036
0.980;-0.684728;0.957197
0.990;-0.685146;1.028575
1.000;-0.677992;1.101507
1.010;-0.664809;1.174541
1.020;-0.647836;1.245820
1.030;-0.629438;1.313621
1.040;-0.611608;1.376791
1.050;-0.595631;1.434897
1.060;-0.581871;1.488068
1.070;-0.569654;1.536639
1.080;-0.557246;1.580791
1.090;-0.541982;1.620382
1.100;-0.520680;1.655043
1.110;-0.490334;1.684514
1.120;-0.448947;1.709031
1.130;-0.396213;1.729578
1.140;-0.333776;1.747828
1.150;-0.264958;1.765780
1.160;-0.194054;1.785275
1.170;-0.125482;1.807588
1.180;-0.063067;1.833247
1.190;-0.009634;1.862067
1.200;0.033039;1.893324
1.210;0.064059;1.926002
1.220;0.083196;1.959028
1.230;0.090764;1.991481
1.240;0.087646;2.022736
1.250;0.075381;2.052503
1.260;0.056162;2.080719
1.270;0.032625;2.107282
1.280;0.007427;2.131798
1.290;-0.017250;2.153508
1.300;-0.040102;2.171515
1.310;-0.060881;2.185211
1.320;-0.080301;2.194671
1.330;-0.099716;2.200813
1.340;-0.120713;2.205264
1.350;-0.144721;2.210034
1.360;-0.172746;2.217115
1.370;-0.205232;2.228121
1.380;-0.242054;2.243973
1.390;-0.282589;2.264682
1.400;-0.325869;2.289273
1.410;-0.370754;2.315896
1.420;-0.416080;2.342153
1.430;-0.460717;2.365532
1.440;-0.503562;2.383841
1.450;-0.543529;2.395490
1.460;-0.579605;2.399553
1.470;-0.610964;2.395682
1.480;-0.637048;2.383964
1.490;-0.657571;2.364814
1.500;-0.672436;2.338939
1.510;-0.681653;2.307290
1.520;-0.685356;2.270979
1.530;-0.683886;2.231121
1.540;-0.677853;2.188664
1.550;-0.668068;2.144257
1.560;-0.655341;2.098198
1.570;-0.640230;2.050428
1.580;-0.622881;2.000564
1.590;-0.603028;1.947960
1.600;-0.580153;1.891791
1.610;-0.553722;1.831206
1.620;-0.523423;1.765555
1.630;-0.489338;1.694696
1.640;-0.452030;1.619265
1.650;-0.412498;1.540737
1.660;-0.372014;1.461157
1.670;-0.331865;1.382608
1.680;-0.293112;1.306658
1.690;-0.256466;1.234034
1.700;-0.222326;1.164672
1.710;-0.190924;1.098077
1.720;-0.162480;1.033810
1.730;-0.137287;0.971892
1.740;-0.115711;0.912970
1.750;-0.098122;0.858207
1.760;-0.084802;0.808925
1.770;-0.075863;0.766150
1.780;-0.071207;0.730226
1.790;-0.070546;0.700636
1.800;-0.073471;0.676098
1.810;-0.079515;0.654913
1.820;-0.088178;0.635452
1.830;-0.098909;0.616615
1.840;-0.111103;0.598091
1.850;-0.124148;0.580297
1.860;-0.137506;0.564071
1.870;-0.150798;0.550272
1.880;-0.163839;0.539480
1.890;-0.176650;0.531922
1.900;-0.189486;0.527612
1.910;-0.202892;0.526612
1.920;-0.217747;0.529269
1.930;-0.235224;0.536311
1.940;-0.256647;0.548789
1.950;-0.283244;0.567893
1.960;-0.315897;0.594726
1.970;-0.354955;0.630068
1.980;-0.400165;0.674173
1.990;-0.450750;0.726631
2.000;-0.505575;0.786393
2.010;-0.563372;0.851962
2.020;-0.622938;0.921697
2.030;-0.683291;0.994056
2.040;-0.743739;1.067695
2.050;-0.803845;1.141408
2.060;-0.863283;1.214006
2.070;-0.921635;1.284264
2.080;-0.978269;1.351014
2.090;-1.032351;1.413335
2.100;-1.083008;1.470756
2.110;-1.129529;1.523348
2.120;-1.171511;1.571643
2.130;-1.208891;1.616434
2.140;-1.241910;1.658567
2.150;-1.271051;1.698852
2.160;-1.297001;1.738081
2.170;-1.320642;1.777093
2.180;-1.343038;1.816752
2.190;-1.365377;1.857801
2.200;-1.388868;1.900666
2.210;-1.414611;1.945330
2.220;-1.443496;1.991398
2.230;-1.476161;2.038327
2.240;-1.513023;2.085691
2.250;-1.554343;2.133324
2.260;-1.600232;2.181244
2.270;-1.650575;2.229401
2.280;-1.704880;2.277395
2.290;-1.762176;2.324371
2.300;-1.821031;2.369167
2.310;-1.879730;2.410664
2.320;-1.936566;2.448194
2.330;-1.990148;2.481831
2.340;-2.039621;2.512489
2.350;-2.084713;2.541800
2.360;-2.125631;2.571829
2.370;-2.162861;2.604695
2.380;-2.196992;2.642177
2.390;-2.228573;2.685418
2.400;-2.258041;2.734776
2.410;-2.285702;2.789844
2.420;-2.311740;2.849618
2.430;-2.336247;2.912732
2.440;-2.359252;2.977695
2.450;-2.380774;3.043050
2.460;-2.400913;3.107447
2.470;-2.419970;3.169642
2.480;-2.438562;3.228479
2.490;-2.457661;3.282876
2.500;-2.478509;3.331849
2.510;-2.502388;3.374559
2.520;-2.530325;3.410433
2.530;-2.562851;3.439316
2.540;-2.599904;3.461605
2.550;-2.640912;3.478240
2.560;-2.684992;3.490512
2.570;-2.731149;3.499709
2.580;-2.778434;3.506748
2.590;-2.826004;3.511965
2.600;-2.873086;3.515152
2.610;-2.918836;3.515816
2.620;-2.962148;3.513532
2.630;-3.001513;3.508245
2.640;-3.035069;3.500430
2.650;-3.060877;3.491068
2.660;-3.077354;3.481404
2.670;-3.083652;3.472570
2.680;-3.079799;3.465168
2.690;-3.066549;3.459020
2.700;-3.045049;3.453178
2.710;-3.016491;3.446204
2.720;-2.981955;3.436618
2.730;-2.942502;3.423371
2.740;-2.899447;3.406176
2.750;-2.854615;3.385583
2.760;-2.810372;3.362772
2.770;-2.769318;3.339139
2.780;-2.733724;3.315840
2.790;-2.704873;3.293414
2.800;-2.682547;3.271582
2.810;-2.664825;3.249282
2.820;-2.648319;3.224925
2.830;-2.628826;3.196825
2.840;-2.602251;3.163666
2.850;-2.565567;3.124855
2.860;-2.517542;3.080637
2.870;-2.459039;3.031966
2.880;-2.392796;2.980210
2.890;-2.322737;2.926853
2.900;-2.252990;2.873247
2.910;-2.186912;2.820440
2.920;-2.126428;2.769086
2.930;-2.071883;2.719442
2.940;-2.022436;2.671489
2.950;-1.976741;2.625122
2.960;-1.933620;2.580347
2.970;-1.892433;2.537384
2.980;-1.853075;2.496658
2.990;-1.815735;2.458721
3.000;-1.780634;2.424177
3.010;-1.747919;2.393653
3.020;-1.717764;2.367784
3.030;-1.690565;2.347172
3.040;-1.667065;2.332254
3.050;-1.648294;2.323122
3.060;-1.635329;2.319360
3.070;-1.628992;2.320046
3.080;-1.629642;2.323942
3.090;-1.637130;2.329819
3.100;-1.650902;2.336751
3.110;-1.670153;2.344228
3.120;-1.693943;2.352074
3.130;-1.721263;2.360258
3.140;-1.751085;2.368725
3.150;-1.782434;2.377362
3.160;-1.814487;2.386097
3.170;-1.846650;2.395022
3.180;-1.878554;2.404428
3.190;-1.909979;2.414694
3.200;-1.940723;2.426089
3.210;-1.970504;2.438626
3.220;-1.998933;2.452031
3.230;-2.025603;2.465880
3.240;-2.050254;2.479784
3.250;-2.072935;2.493534
3.260;-2.094068;2.507103
3.270;-2.114347;2.520542
3.280;-2.134509;2.533863
3.290;-2.155040;2.546990
3.300;-2.175943;2.559806
3.310;-2.196701;2.572280
3.320;-2.216465;2.584565
3.330;-2.234423;2.596999
3.340;-2.250157;2.609972
3.350;-2.263868;2.623774
3.360;-2.276360;2.638485
3.370;-2.288843;2.653949
3.380;-2.302654;2.669787
3.390;-2.319020;2.685455
3.400;-2.338909;2.700367
3.410;-2.362975;2.714104
3.420;-2.391535;2.726632
3.430;-2.424558;2.738427
3.440;-2.461612;2.750395
3.450;-2.501794;2.763600
3.460;-2.543674;2.778874
3.470;-2.585343;2.796471
3.480;-2.624591;2.815911
3.490;-2.659189;2.836100
3.500;-2.687200;2.855662
3.510;-2.707257;2.873359
3.520;-2.718744;2.888433
3.530;-2.721881;2.900775
3.540;-2.717699;2.910920
3.550;-2.707887;2.919919
3.560;-2.694511;2.929143
3.570;-2.679640;2.940033
3.580;-2.664964;2.953833
3.590;-2.651531;2.971339
3.600;-2.639680;2.992736
3.610;-2.629154;3.017575
3.620;-2.619305;3.044911
3.630;-2.609287;3.073567
3.640;-2.598211;3.102436
3.650;-2.585265;3.130735
3.660;-2.569856;3.158126
3.670;-2.551794;3.184661
3.680;-2.531468;3.210585
3.690;-2.509913;3.236090
3.700;-2.488670;3.261116
3.710;-2.469442;3.285284
3.720;-2.453667;3.307976
3.730;-2.442172;3.328518
3.740;-2.435027;3.346385
3.750;-2.431616;3.361355
3.760;-2.430875;3.373543
3.770;-2.431609;3.383321
3.780;-2.432816;3.391152
3.790;-2.433911;3.397399
3.800;-2.434804;3.402211
3.810;-2.435793;3.405531
3.820;-2.437337;3.407227
3.830;-2.439804;3.407271
3.840;-2.443347;3.405893
3.850;-2.447948;3.403614
3.860;-2.453606;3.401120
3.870;-2.460548;3.399052
3.880;-2.469344;3.397794
3.890;-2.480858;3.397375
3.900;-2.496063;3.397530
3.910;-2.515738;3.397846
3.920;-2.540131;3.397925
3.930;-2.568691;3.397459
3.940;-2.599969;3.396228
3.950;-2.631761;3.394055
3.960;-2.661490;3.390763
3.970;-2.686734;3.386173
3.980;-2.705727;3.380093
3.990;-2.717640;3.372296
4.000;-2.722516;3.362434
4.010;-2.720892;3.349955
4.020;-2.713312;3.334078
4.030;-2.700014;3.313930
4.040;-2.680970;3.288806
4.050;-2.656276;3.258498
4.060;-2.626662;3.223522
4.070;-2.593842;3.185157
4.080;-2.560465;3.145247
4.090;-2.529653;3.105769
4.100;-2.504251;3.068302
4.110;-2.486077;3.033503
4.120;-2.475412;3.000810
4.130;-2.470912;2.968466
4.140;-2.469959;2.933887
4.150;-2.469326;2.894213
4.160;-2.465925;2.846847
4.170;-2.457412;2.789855
4.180;-2.442515;2.722227
4.190;-2.421141;2.644082
4.200;-2.394339;2.556797
4.210;-2.364167;2.462964
4.220;-2.333406;2.366058
4.230;-2.305081;2.269840
4.240;-2.281823;2.177675
4.250;-2.265255;2.091976
4.260;-2.255653;2.013964
4.270;-2.252023;1.943774
4.280;-2.252602;1.880818
4.290;-2.255575;1.824217
4.300;-2.259676;1.773099
4.310;-2.264468;1.726709
4.320;-2.270243;1.684368
4.330;-2.277702;1.645401
4.340;-2.287587;1.609149
4.350;-2.300415;1.575065
4.360;-2.316358;1.542877
4.370;-2.335262;1.512710
4.380;-2.356726;1.485106
4.390;-2.380182;1.460903
4.400;-2.404962;1.441034
4.410;-2.430337;1.426282
4.420;-2.455556;1.417066
4.430;-2.479885;1.413293
4.440;-2.502623;1.414358
4.450;-2.523113;1.419343
4.460;-2.540725;1.427386
4.470;-2.554836;1.438037
4.480;-2.564835;1.451423
4.490;-2.570197;1.468064
4.500;-2.570629;1.488429
4.510;-2.566234;1.512417
4.520;-2.557604;1.539055
4.530;-2.545767;1.566551
4.540;-2.532014;1.592716
4.550;-2.517677;1.615592
4.560;-2.503947;1.634050
4.570;-2.491753;1.648104
4.580;-2.481690;1.658830
4.590;-2.474014;1.667907
4.600;-2.468682;1.676988
4.610;-2.465457;1.687141
4.620;-2.464008;1.698567
4.630;-2.464024;1.710678
4.640;-2.465319;1.722485
4.650;-2.467929;1.733135
4.660;-2.472172;1.742384
4.670;-2.478672;1.750827
4.680;-2.488291;1.759789
4.690;-2.501994;1.770962
4.700;-2.520621;1.785912
4.710;-2.544638;1.805630
4.720;-2.573902;1.830250
4.730;-2.607511;1.859021
4.740;-2.643778;1.890543
4.750;-2.680389;1.923215
4.760;-2.714745;1.955724
4.770;-2.744395;1.987386
4.780;-2.767429;2.018207
4.790;-2.782752;2.048683
4.800;-2.790205;2.079494
4.810;-2.790560;2.111258
4.820;-2.785371;2.144412
4.830;-2.776693;2.179194
4.840;-2.766707;2.215607
4.850;-2.757342;2.253364
4.860;-2.749996;2.291835
4.870;-2.745401;2.330115
4.880;-2.743641;2.367224
4.890;-2.744243;2.402413
4.900;-2.746319;2.435390
4.910;-2.748741;2.466369
4.920;-2.750350;2.495878
4.930;-2.750167;2.524441
4.940;-2.747586;2.552257
4.950;-2.742474;2.579027
4.960;-2.735158;2.603970
4.970;-2.726296;2.626026
4.980;-2.716682;2.644195
4.990;-2.707056;2.657894
5.000;-2.697981;2.667195
5.010;-2.689797;2.672828
5.020;-2.682599;2.675932
5.030;-2.676194;2.677610
5.040;-2.670041;2.678477
5.050;-2.663203;2.678394
5.060;-2.654386;2.676525
5.070;-2.642149;2.671715
5.080;-2.625279;2.663024
5.090;-2.603228;2.650227
5.100;-2.576425;2.634069
5.110;-2.546282;2.616198
5.120;-2.514898;2.598805
5.130;-2.484523;2.584099
5.140;-2.456968;2.573779
5.150;-2.433129;2.568641
5.160;-2.412821;2.568441
5.170;-2.394972;2.572045
5.180;-2.378152;2.577807
5.190;-2.361271;2.584035
5.200;-2.344163;2.589375
5.210;-2.327816;2.593007
5.220;-2.314145;2.594605
5.230;-2.305422;2.594129
5.240;-2.303611;2.591577
5.250;-2.309883;2.586881
5.260;-2.324441;2.580012
5.270;-2.346648;2.571234
5.280;-2.375354;2.561304
5.290;-2.409252;2.551445
5.300;-2.447140;2.543052
5.310;-2.488025;2.537278
5.320;-2.531094;2.534694
5.330;-2.575645;2.535148
5.340;-2.620990;2.537861
5.350;-2.666376;2.541650
5.360;-2.710893;2.545222
5.370;-2.753409;2.547449
5.380;-2.792587;2.547590
5.390;-2.827036;2.545431
5.400;-2.855584;2.541291
5.410;-2.877583;2.535898
5.420;-2.893122;2.530158
5.430;-2.903043;2.524887
5.440;-2.908739;2.520622
5.450;-2.911847;2.517568
5.460;-2.913959;2.515715
5.470;-2.916435;2.515019
5.480;-2.920314;2.515568
5.490;-2.926278;2.517616
5.500;-2.934627;2.521507
5.510;-2.945279;2.527500
5.520;-2.957839;2.535590
5.530;-2.971746;2.545396
5.540;-2.986441;2.556185
5.550;-3.001500;2.567002
5.560;-3.016669;2.576853
5.570;-3.031815;2.584864
5.580;-3.046864;2.590407
5.590;-3.061748;2.593179
5.600;-3.076373;2.593210
5.610;-3.090559;2.590747
5.620;-3.103991;2.586082
5.630;-3.116190;2.579409
5.640;-3.126585;2.570807
5.650;-3.134657;2.560348
5.660;-3.140097;2.548236
5.670;-3.142904;2.534883
5.680;-3.143398;2.520891
5.690;-3.142169;2.506956
5.700;-3.140013;2.493767
5.710;-3.137864;2.481929
5.720;-3.136691;2.471911
5.730;-3.137367;2.463971
5.740;-3.140511;2.458006
5.750;-3.146392;2.453369
5.760;-3.154929;2.448785
5.770;-3.165783;2.442480
5.780;-3.178515;2.432540
5.790;-3.192751;2.417367
5.800;-3.208313;2.396063
5.810;-3.225277;2.368622
5.820;-3.243976;2.335899
5.830;-3.264948;2.299387
5.840;-3.288839;2.260898
5.850;-3.316257;2.222203
5.860;-3.347599;2.184709
5.870;-3.382908;2.149242
5.880;-3.421838;2.115984
5.890;-3.463755;2.084574
5.900;-3.507928;2.054314
5.910;-3.553702;2.024421
5.920;-3.600565;1.994255
5.930;-3.648100;1.963471
5.940;-3.695849;1.932051
5.950;-3.743201;1.900221
5.960;-3.789356;1.868291
5.970;-3.833408;1.836513
5.980;-3.874519;1.805032
5.990;-3.912133;1.773947
6.000;-3.946147;1.743425
6.010;-3.976949;1.713772
6.020;-4.005261;1.685442
6.030;-4.031857;1.658936
6.040;-4.057266;1.634627
6.050;-4.081641;1.612587
6.060;-4.104851;1.592512
6.070;-4.126710;1.573821
6.080;-4.147185;1.555896
6.090;-4.166445;1.538326
6.100;-4.184744;1.521053
6.110;-4.202212;1.504364
6.120;-4.218697;1.488793
6.130;-4.233740;1.474990
6.140;-4.246694;1.463621
6.150;-4.256930;1.455268
6.160;-4.264073;1.450327
6.170;-4.268168;1.448937
6.180;-4.269743;1.450972
6.190;-4.269740;1.456119
6.200;-4.269330;1.463971
6.210;-4.269659;1.474106
6.220;-4.271595;1.486088
6.230;-4.275519;1.499434
6.240;-4.281212;1.513598
6.250;-4.287835;1.528044
6.260;-4.294021;1.542449
6.270;-4.298051;1.556955
6.280;-4.298112;1.572295
6.290;-4.292601;1.589652
6.300;-4.280462;1.610266
6.310;-4.261507;1.634960
6.320;-4.236608;1.663819
6.330;-4.207636;1.696163
6.340;-4.177127;1.730788
6.350;-4.147699;1.766342
6.360;-4.121441;1.801660
6.370;-4.099444;1.835968
6.380;-4.081667;1.868889
6.390;-4.067159;1.900296
6.400;-4.054545;1.930116
6.410;-4.042601;1.958188
6.420;-4.030677;1.984246
6.430;-4.018842;2.007969
6.440;-4.007683;2.029028
6.450;-3.997898;2.047116
6.460;-3.989887;2.061975
6.470;-3.983577;2.073454
6.480;-3.978524;2.081539
6.490;-3.974196;2.086311
6.500;-3.970245;2.087862
6.510;-3.966657;2.086247
6.520;-3.963731;2.081538
6.530;-3.961882;2.073988
6.540;-3.961326;2.064211
6.550;-3.961725;2.053269
6.560;-3.961969;2.042563
6.570;-3.960205;2.033541
6.580;-3.954167;2.027337
6.590;-3.941698;2.024515
6.600;-3.921287;2.025006
6.610;-3.892392;2.028246
6.620;-3.855399;2.033402
6.630;-3.811247;2.039575
6.640;-3.760885;2.045932
6.650;-3.704793;2.051729
6.660;-3.642731;2.056247
6.670;-3.573813;2.058713
6.680;-3.496822;2.058269
6.690;-3.410680;2.054021
6.700;-3.314898;2.045174
6.710;-3.209915;2.031179
6.720;-3.097268;2.011898
6.730;-2.979595;1.987746
6.740;-2.860465;1.959772
6.750;-2.744036;1.929631
6.760;-2.634546;1.899374
6.770;-2.535686;1.871071
6.780;-2.449982;1.846358
6.790;-2.378369;1.826024
6.800;-2.320088;1.809789
6.810;-2.272971;1.796339
6.820;-2.234022;1.783656
6.830;-2.200158;1.769527
6.840;-2.168855;1.752044
6.850;-2.138508;1.729943
6.860;-2.108394;1.702743
6.870;-2.078308;1.670758
6.880;-2.048102;1.635087
6.890;-2.017382;1.597553
6.900;-1.985498;1.560546
6.910;-1.951769;1.526733
6.920;-1.915771;1.498646
6.930;-1.877510;1.478289
6.940;-1.837436;1.466862
6.950;-1.796358;1.464677
6.960;-1.755334;1.471265
6.970;-1.715604;1.485589
6.980;-1.678565;1.506279
6.990;-1.645805;1.531824
7.000;-1.619127;1.560698
7.010;-1.600546;1.591444
7.020;-1.592168;1.622732
7.030;-1.595940;1.653420
7.040;-1.613288;1.682595
7.050;-1.644734;1.709601
7.060;-1.689609;1.734018
7.070;-1.745938;1.755594
7.080;-1.810564;1.774102
7.090;-1.879570;1.789226
7.100;-1.948935;1.800566
7.110;-2.015273;1.807843
7.120;-2.076419;1.811198
7.130;-2.131662;1.811440
7.140;-2.181554;1.810075
7.150;-2.227362;1.809056
7.160;-2.270301;1.810321
7.170;-2.310791;1.815260
7.180;-2.347922;1.824338
7.190;-2.379341;1.837012
7.200;-2.401622;1.851972
7.210;-2.411010;1.867603
7.220;-2.404284;1.882507
7.230;-2.379412;1.895910
7.240;-2.335846;1.907855
7.250;-2.274481;1.919117
7.260;-2.197461;1.930917
7.270;-2.107975;1.944551
7.280;-2.010067;1.961086
7.290;-1.908352;1.981174
7.300;-1.807587;2.005000
7.310;-1.712073;2.032331
7.320;-1.625048;2.062636
7.330;-1.548229;2.095271
7.340;-1.481678;2.129678
7.350;-1.424057;2.165514
7.360;-1.373217;2.202655
7.370;-1.326956;2.241071
7.380;-1.283684;2.280669
7.390;-1.242793;2.321180
7.400;-1.204630;2.362164
7.410;-1.170110;2.403116
7.420;-1.140194;2.443596
7.430;-1.115427;2.483295
7.440;-1.095698;2.522028
7.450;-1.080224;2.559692
7.460;-1.067708;2.596246
7.470;-1.056594;2.631736
7.480;-1.045373;2.666283
7.490;-1.032864;2.699972
7.500;-1.018433;2.732666
7.510;-1.002112;2.763864
7.520;-0.984598;2.792717
7.530;-0.967103;2.818225
7.540;-0.951068;2.839515
7.550;-0.937800;2.856064
7.560;-0.928146;2.867799
7.570;-0.922330;2.875029
7.580;-0.919970;2.878286
7.590;-0.920227;2.878120
7.600;-0.922029;2.874936
7.610;-0.924296;2.868938
7.620;-0.926122;2.860196
7.630;-0.926855;2.848828
7.640;-0.926092;2.835189
7.650;-0.923607;2.819972
7.660;-0.919283;2.804137
7.670;-0.913037;2.788707
7.680;-0.904780;2.774538
7.690;-0.894433;2.762169
7.700;-0.881999;2.751769
7.710;-0.867640;2.743139
7.720;-0.851663;2.735760
7.730;-0.834355;2.728869
7.740;-0.815720;2.721575
7.750;-0.795210;2.712991
7.760;-0.771611;2.702322
7.770;-0.743137;2.688902
7.780;-0.707775;2.672207
7.790;-0.663758;2.651889
7.800;-0.610011;2.627853
7.810;-0.546441;2.600346
7.820;-0.473982;2.570056
7.830;-0.394421;2.538184
7.840;-0.310072;2.506458
7.850;-0.223385;2.476985
7.860;-0.136599;2.451917
7.870;-0.051481;2.433013
7.880;0.030795;2.421219
7.890;0.109644;2.416440
7.900;0.184953;2.417551
7.910;0.256881;2.422625
7.920;0.325629;2.429278
7.930;0.391276;2.435076
7.940;0.453686;2.437902
7.950;0.512512;2.436247
7.960;0.567235;2.429354
7.970;0.617215;2.417201
7.980;0.661743;2.400332
