Time[s];COPx[cm];COPy[cm]
0.010;1.972646;-0.244670
0.020;1.969915;-0.229304
0.030;1.967287;-0.214508
0.040;1.964859;-0.200741
0.050;1.962678;-0.188324
0.060;1.960746;-0.177409
0.070;1.959046;-0.167976
0.080;1.957576;-0.159853
0.090;1.956363;-0.152773
0.100;1.955446;-0.146431
0.110;1.954836;-0.140541
0.120;1.954474;-0.134870
0.130;1.954230;-0.129251
0.140;1.953942;-0.123585
0.150;1.953492;-0.117820
0.160;1.952882;-0.111921
0.170;1.952253;-0.105854
0.180;1.951822;-0.099583
0.190;1.951760;-0.093092
0.200;1.952110;-0.086407
0.210;1.952799;-0.079600
0.220;1.953726;-0.072757
0.230;1.954872;-0.065914
0.240;1.956353;-0.058991
0.250;1.958395;-0.051772
0.260;1.961220;-0.043957
0.270;1.964898;-0.035273
0.280;1.969230;-0.025601
0.290;1.973718;-0.015032
0.300;1.977666;-0.003834
0.310;1.980375;0.007657
0.320;1.981342;0.019165
0.330;1.980386;0.030541
0.340;1.977646;0.041762
0.350;1.973482;0.052862
0.360;1.968335;0.063863
0.370;1.962626;0.074742
0.380;1.956704;0.085456
0.390;1.950844;0.096000
0.400;1.945251;0.106438
0.410;1.940058;0.116879
0.420;1.935324;0.127427
0.430;1.931050;0.138132
0.440;1.927242;0.148971
0.450;1.923979;0.159861
0.460;1.921451;0.170665
0.470;1.919889;0.181193
0.480;1.919431;0.191219
0.490;1.919979;0.200550
0.500;1.921135;0.209135
0.510;1.922253;0.217112
0.520;1.922579;0.224728
0.530;1.921416;0.232141
0.540;1.918240;0.239251
0.550;1.912759;0.245662
0.560;1.904915;0.250822
0.570;1.894856;0.254253
0.580;1.882915;0.255767
0.590;1.869609;0.255569
0.600;1.855639;0.254225
0.610;1.841830;0.252502
0.620;1.829032;0.251124
0.630;1.817980;0.250542
0.640;1.809171;0.250807
0.650;1.802798;0.251586
0.660;1.798751;0.252318
0.670;1.796659;0.252436
0.680;1.795969;0.251599
0.690;1.796046;0.249844
0.700;1.796281;0.247608
0.710;1.796167;0.245580
0.720;1.795338;0.244453
0.730;1.793600;0.244686
0.740;1.790973;0.246390
0.750;1.787741;0.249373
0.760;1.784417;0.253253
0.770;1.781633;0.257570
0.780;1.779976;0.261860
0.790;1.779866;0.265673
0.800;1.781501;0.268597
0.810;1.784867;0.270287
0.820;1.789780;0.270538
0.830;1.795936;0.269358
0.840;1.802976;0.266983
0.850;1.810557;0.263803
0.860;1.818435;0.260205
0.870;1.826506;0.256439
0.880;1.834813;0.252561
0.890;1.843496;0.248490
0.900;1.852707;0.244109
0.910;1.862544;0.239326
0.920;1.873026;0.234069
0.930;1.884096;0.228262
0.940;1.895624;0.221819
0.950;1.907376;0.214664
0.960;1.918989;0.206753
0.970;1.929994;0.198103
0.980;1.939903;0.188805
0.990;1.948327;0.179012
1.000;1.955049;0.168900
1.010;1.960023;0.158634
1.020;1.963297;0.148343
1.030;1.964911;0.138135
1.040;1.964827;0.128112
1.050;1.962917;0.118376
1.060;1.959016;0.108998
1.070;1.952992;0.099960
1.080;1.944841;0.091123
1.090;1.934759;0.082261
1.100;1.923171;0.073168
1.110;1.910675;0.063770
1.120;1.897924;0.054155
1.130;1.885483;0.044498
1.140;1.873744;0.034938
1.150;1.862924;0.025503
1.160;1.853118;0.016120
1.170;1.844340;0.006691
1.180;1.836539;-0.002818
1.190;1.829580;-0.012325
1.200;1.823277;-0.021649
1.210;1.817462;-0.030569
1.220;1.812082;-0.038909
1.230;1.807236;-0.046586
1.240;1.803139;-0.053620
1.250;1.800012;-0.060091
1.260;1.797965;-0.066095
1.270;1.796894;-0.071698
1.280;1.796460;-0.076916
1.290;1.796154;-0.081697
1.300;1.795460;-0.085919
1.310;1.794068;-0.089407
1.320;1.792046;-0.091967
1.330;1.789883;-0.093479
1.340;1.788338;-0.093986
1.350;1.788139;-0.093759
1.360;1.789652;-0.093277
1.370;1.792693;-0.093120
1.380;1.796554;-0.093800
1.390;1.800219;-0.095611
1.400;1.802674;-0.098551
1.410;1.803173;-0.102359
1.420;1.801400;-0.106608
1.430;1.797487;-0.110795
1.440;1.791911;-0.114391
1.450;1.785316;-0.116865
1.460;1.778329;-0.117733
1.470;1.771436;-0.116647
1.480;1.764953;-0.113524
1.490;1.759088;-0.108636
1.500;1.754005;-0.102602
1.510;1.749856;-0.096270
1.520;1.746730;-0.090515
1.530;1.744580;-0.086021
1.540;1.743170;-0.083106
1.550;1.742084;-0.081661
1.560;1.740800;-0.081196
1.570;1.738781;-0.080984
1.580;1.735587;-0.080218
1.590;1.730950;-0.078159
1.600;1.724813;-0.074267
1.610;1.717307;-0.068326
1.620;1.708688;-0.060554
1.630;1.699274;-0.051617
1.640;1.689430;-0.042486
1.650;1.679579;-0.034181
1.660;1.670230;-0.027489
1.670;1.661944;-0.022767
1.680;1.655222;-0.019895
1.690;1.650337;-0.018352
1.700;1.647216;-0.017392
1.710;1.645440;-0.016247
1.720;1.644385;-0.014323
1.730;1.643434;-0.011344
1.740;1.642169;-0.007397
1.750;1.640462;-0.002861
1.760;1.638450;0.001758
1.770;1.636419;0.006021
1.780;1.634679;0.009714
1.790;1.633445;0.012905
1.800;1.632790;0.015873
1.810;1.632658;0.018937
1.820;1.632945;0.022281
1.830;1.633563;0.025882
1.840;1.634473;0.029564
1.850;1.635650;0.033113
1.860;1.637047;0.036381
1.870;1.638572;0.039328
1.880;1.640124;0.041993
1.890;1.641654;0.044459
1.900;1.643211;0.046801
1.910;1.644915;0.049068
1.920;1.646878;0.051271
1.930;1.649136;0.053409
1.940;1.651624;0.055490
1.950;1.654221;0.057544
1.960;1.656827;0.059622
1.970;1.659408;0.061793
1.980;1.661986;0.064139
1.990;1.664589;0.066719
2.000;1.667192;0.069524
2.010;1.669723;0.072432
2.020;1.672094;0.075212
2.030;1.674242;0.077575
2.040;1.676118;0.079257
2.050;1.677634;0.080097
2.060;1.678635;0.080078
2.070;1.678946;0.079315
2.080;1.678490;0.078021
2.090;1.677384;0.076473
2.100;1.675912;0.074996
2.110;1.674378;0.073935
2.120;1.672899;0.073612
2.130;1.671282;0.074242
2.140;1.669073;0.075852
2.150;1.665770;0.078224
2.160;1.661091;0.080913
2.170;1.655176;0.083369
2.180;1.648601;0.085127
2.190;1.642202;0.085961
2.200;1.636780;0.085935
2.210;1.632814;0.085323
2.220;1.630313;0.084462
2.230;1.628856;0.083619
2.240;1.627796;0.082928
2.250;1.626534;0.082392
2.260;1.624734;0.081926
2.270;1.622411;0.081423
2.280;1.619869;0.080803
2.290;1.617523;0.080048
2.300;1.615694;0.079199
2.310;1.614450;0.078338
2.320;1.613554;0.077549
2.330;1.612548;0.076890
2.340;1.610934;0.076362
2.350;1.608393;0.075903
2.360;1.604948;0.075407
2.370;1.601048;0.074766
2.380;1.597506;0.073920
2.390;1.595317;0.072859
2.400;1.595388;0.071586
2.410;1.598271;0.070058
2.420;1.604009;0.068142
2.430;1.612124;0.065628
2.440;1.621734;0.062310
2.450;1.631770;0.058105
2.460;1.641222;0.053143
2.470;1.649383;0.047762
2.480;1.656014;0.042398
2.490;1.661404;0.037445
2.500;1.666297;0.033145
2.510;1.671677;0.029556
2.520;1.678486;0.026575
2.530;1.687350;0.024011
2.540;1.698415;0.021678
2.550;1.711324;0.019463
2.560;1.725350;0.017337
2.570;1.739637;0.015333
2.580;1.753462;0.013496
2.590;1.766416;0.011840
2.600;1.778437;0.010325
2.610;1.789719;0.008841
2.620;1.800572;0.007212
2.630;1.811308;0.005243
2.640;1.822198;0.002821
2.650;1.833469;0.000007
2.660;1.845291;-0.002944
2.670;1.857770;-0.005686
2.680;1.870903;-0.007922
2.690;1.884554;-0.009495
2.700;1.898449;-0.010379
2.710;1.912237;-0.010606
2.720;1.925576;-0.010222
2.730;1.938235;-0.009279
2.740;1.950161;-0.007858
2.750;1.961504;-0.006087
2.760;1.972583;-0.004116
2.770;1.983806;-0.002046
2.780;1.995572;0.000138
2.790;2.008180;0.002566
2.800;2.021779;0.005383
2.810;2.036378;0.008626
2.820;2.051898;0.012149
2.830;2.068238;0.015672
2.840;2.085304;0.018919
2.850;2.102991;0.021770
2.860;2.121140;0.024336
2.870;2.139498;0.026893
2.880;2.157728;0.029712
2.890;2.175489;0.032877
2.900;2.192533;0.036214
2.910;2.208801;0.039359
2.920;2.224452;0.041899
2.930;2.239815;0.043522
2.940;2.255273;0.044110
2.950;2.271117;0.043762
2.960;2.287418;0.042718
2.970;2.303984;0.041217
2.980;2.320389;0.039379
2.990;2.336076;0.037150
3.000;2.350491;0.034344
3.010;2.363210;0.030743
3.020;2.374019;0.026200
3.030;2.382907;0.020731
3.040;2.390007;0.014549
3.050;2.395514;0.008036
3.060;2.399629;0.001658
3.070;2.402533;-0.004163
3.080;2.404359;-0.009158
3.090;2.405135;-0.013267
3.100;2.404723;-0.016635
3.110;2.402814;-0.019547
3.120;2.399026;-0.022334
3.130;2.393103;-0.025284
3.140;2.385109;-0.028559
3.150;2.375494;-0.032153
3.160;2.364996;-0.035905
3.170;2.354402;-0.039556
3.180;2.344305;-0.042835
3.190;2.334968;-0.045502
3.200;2.326349;-0.047338
3.210;2.318255;-0.048107
3.220;2.310530;-0.047571
3.230;2.303163;-0.045555
3.240;2.296241;-0.042024
3.250;2.289831;-0.037128
3.260;2.283854;-0.031197
3.270;2.278076;-0.024726
3.280;2.272176;-0.018336
3.290;2.265856;-0.012683
3.300;2.258915;-0.008299
3.310;2.251279;-0.005425
3.320;2.242998;-0.003907
3.330;2.234223;-0.003217
3.340;2.225173;-0.002617
3.350;2.216115;-0.001419
3.360;2.207373;0.000758
3.370;2.199349;0.003854
3.380;2.192523;0.007433
3.390;2.187391;0.010934
3.400;2.184320;0.013992
3.410;2.183374;0.016674
3.420;2.184194;0.019479
3.430;2.185993;0.023112
3.440;2.187728;0.028135
3.450;2.188388;0.034668
3.460;2.187315;0.042283
3.470;2.184386;0.050143
3.480;2.179998;0.057312
3.490;2.174869;0.063091
3.500;2.169754;0.067224
3.510;2.165204;0.069913
3.520;2.161415;0.071690
3.530;2.158200;0.073253
3.540;2.155084;0.075308
3.550;2.151506;0.078431
3.560;2.147089;0.082930
3.570;2.141879;0.088762
3.580;2.136453;0.095545
3.590;2.131826;0.102679
3.600;2.129181;0.109564
3.610;2.129506;0.115817
3.620;2.133272;0.121400
3.630;2.140289;0.126581
3.640;2.149792;0.131751
3.650;2.160708;0.137193
3.660;2.172009;0.142935
3.670;2.183007;0.148722
3.680;2.193485;0.154148
3.690;2.203627;0.158839
3.700;2.213828;0.162610
3.710;2.224480;0.165490
3.720;2.235853;0.167641
3.730;2.248071;0.169241
3.740;2.261158;0.170387
3.750;2.275107;0.171082
3.760;2.289925;0.171281
3.770;2.305647;0.170984
3.780;2.322321;0.170310
3.790;2.339993;0.169510
3.800;2.358689;0.168897
3.810;2.378374;0.168741
3.820;2.398890;0.169179
3.830;2.419906;0.170195
3.840;2.440940;0.171629
3.850;2.461456;0.173227
3.860;2.480990;0.174715
3.870;2.499224;0.175897
3.880;2.516010;0.176745
3.890;2.531323;0.177415
3.900;2.545188;0.178172
3.910;2.557606;0.179255
3.920;2.568480;0.180772
3.930;2.577561;0.182698
3.940;2.584458;0.184947
3.950;2.588708;0.187477
3.960;2.589931;0.190356
3.970;2.588000;0.193748
3.980;2.583148;0.197849
3.990;2.575947;0.202799
4.000;2.567148;0.208635
4.010;2.557435;0.215303
4.020;2.547218;0.222704
4.030;2.536577;0.230714
4.040;2.525370;0.239173
4.050;2.513437;0.247866
4.060;2.500770;0.256536
4.070;2.487547;0.264928
4.080;2.474040;0.272817
4.090;2.460463;0.280020
4.100;2.446860;0.286363
4.110;2.433055;0.291668
4.120;2.418687;0.295768
4.130;2.403268;0.298561
4.140;2.386277;0.300073
4.150;2.367271;0.300471
4.160;2.345989;0.300050
4.170;2.322393;0.299181
4.180;2.296607;0.298243
4.190;2.268763;0.297534
4.200;2.238834;0.297221
4.210;2.206529;0.297333
4.220;2.171339;0.297806
4.230;2.132749;0.298522
4.240;2.090543;0.299341
4.250;2.045074;0.300133
4.260;1.997355;0.300829
4.270;1.948939;0.301470
4.280;1.901603;0.302208
4.290;1.856998;0.303232
4.300;1.816360;0.304627
4.310;1.780367;0.306234
4.320;1.749133;0.307604
4.330;1.722278;0.308079
4.340;1.699070;0.306999
4.350;1.678599;0.303913
4.360;1.659966;0.298724
4.370;1.642412;0.291704
4.380;1.625338;0.283400
4.390;1.608260;0.274471
4.400;1.590748;0.265492
4.410;1.572442;0.256779
4.420;1.553136;0.248286
4.430;1.532883;0.239643
4.440;1.512034;0.230329
4.450;1.491210;0.219886
4.460;1.471192;0.208065
4.470;1.452770;0.194881
4.480;1.436557;0.180595
4.490;1.422852;0.165689
4.500;1.411597;0.150818
4.510;1.402486;0.136688
4.520;1.395168;0.123861
4.530;1.389444;0.112544
4.540;1.385357;0.102482
4.550;1.383146;0.093010
4.560;1.383108;0.083277
4.570;1.385427;0.072534
4.580;1.390041;0.060414
4.590;1.396602;0.047094
4.600;1.404553;0.033302
4.610;1.413306;0.020145
4.620;1.422480;0.008793
4.630;1.432109;0.000105
4.640;1.442725;-0.005639
4.650;1.455253;-0.008769
4.660;1.470750;-0.009999
4.670;1.490084;-0.010086
4.680;1.513668;-0.009556
4.690;1.541312;-0.008623
4.700;1.572224;-0.007260
4.710;1.605157;-0.005322
4.720;1.638674;-0.002628
4.730;1.671469;0.001037
4.740;1.702622;0.005948
4.750;1.731719;0.012465
4.760;1.758802;0.021003
4.770;1.784209;0.031918
4.780;1.808401;0.045342
4.790;1.831843;0.061051
4.800;1.854974;0.078442
4.810;1.878213;0.096677
4.820;1.901970;0.114920
4.830;1.926625;0.132584
4.840;1.952494;0.149482
4.850;1.979792;0.165847
4.860;2.008591;0.182233
4.870;2.038773;0.199325
4.880;2.069980;0.217717
4.890;2.101600;0.237727
4.900;2.132808;0.259290
4.910;2.162686;0.281961
4.920;2.190378;0.305030
4.930;2.215237;0.327705
4.940;2.236903;0.349322
4.950;2.255308;0.369485
4.960;2.270610;0.388108
4.970;2.283092;0.405354
4.980;2.293041;0.421542
4.990;2.300640;0.437049
5.000;2.305921;0.452236
5.010;2.308756;0.467354
5.020;2.308902;0.482457
5.030;2.306058;0.497367
5.040;2.299962;0.511730
5.050;2.290510;0.525158
5.060;2.277865;0.537405
5.070;2.262486;0.548497
5.080;2.245063;0.558763
5.090;2.226357;0.568736
5.100;2.206995;0.578958
5.110;2.187297;0.589783
5.120;2.167196;0.601276
5.130;2.146271;0.613260
5.140;2.123887;0.625465
5.150;2.099350;0.637703
5.160;2.072059;0.649970
5.170;2.041592;0.662455
5.180;2.007764;0.675442
5.190;1.970654;0.689153
5.200;1.930624;0.703631
5.210;1.888313;0.718737
5.220;1.844558;0.734299
5.230;1.800237;0.750318
5.240;1.756043;0.767087
5.250;1.712284;0.785128
5.260;1.668806;0.804940
5.270;1.625105;0.826708
5.280;1.580605;0.850101
5.290;1.534999;0.874290
5.300;1.488514;0.898154
5.310;1.441973;0.920589
5.320;1.396671;0.940752
5.330;1.354122;0.958181
5.340;1.315771;0.972794
5.350;1.282745;0.984806
5.360;1.255696;0.994602
5.370;1.234753;1.002590
5.380;1.219616;1.009064
5.390;1.209723;1.014121
5.400;1.204441;1.017673
5.410;1.203195;1.019537
5.420;1.205511;1.019568
5.430;1.210997;1.017773
5.440;1.219330;1.014354
5.450;1.230284;1.009630
5.460;1.243775;1.003888
5.470;1.259844;0.997225
5.480;1.278546;0.989504
5.490;1.299797;0.980477
5.500;1.323260;0.970002
5.510;1.348348;0.958239
5.520;1.374336;0.945703
5.530;1.400513;0.933129
5.540;1.426331;0.921221
5.550;1.451477;0.910381
5.560;1.475866;0.900590
5.570;1.499573;0.891466
5.580;1.522732;0.882502
5.590;1.545431;0.873330
5.600;1.567630;0.863921
5.610;1.589111;0.854615
5.620;1.609499;0.845997
5.630;1.628344;0.838711
5.640;1.645258;0.833278
5.650;1.660032;0.829981
5.660;1.672653;0.828823
5.670;1.683212;0.829550
5.680;1.691740;0.831728
5.690;1.698077;0.834854
5.700;1.701871;0.838458
5.710;1.702724;0.842175
5.720;1.700414;0.845796
5.730;1.695063;0.849311
5.740;1.687138;0.852931
5.750;1.677291;0.857064
5.760;1.666118;0.862190
5.770;1.653964;0.868681
5.780;1.640883;0.876640
5.790;1.626731;0.885847
5.800;1.611335;0.895826
5.810;1.594647;0.905981
5.820;1.576822;0.915733
5.830;1.558188;0.924626
5.840;1.539148;0.932425
5.850;1.520059;0.939205
5.860;1.501132;0.945375
5.870;1.482398;0.951599
5.880;1.463733;0.958644
5.890;1.444937;0.967203
5.900;1.425824;0.977749
5.910;1.406298;0.990407
5.920;1.386387;1.004891
5.930;1.366243;1.020520
5.940;1.346111;1.036347
5.950;1.326319;1.051365
5.960;1.307265;1.064692
5.970;1.289395;1.075712
5.980;1.273156;1.084128
5.990;1.258903;1.089996
6.000;1.246804;1.093724
6.010;1.236775;1.096034
6.020;1.228499;1.097817
6.030;1.221521;1.099909
6.040;1.215392;1.102827
6.050;1.209807;1.106596
6.060;1.204694;1.110729
6.070;1.200226;1.114432
6.080;1.196774;1.116932
6.090;1.194817;1.117784
6.100;1.194814;1.116997
6.110;1.197078;1.114927
6.120;1.201650;1.112014
6.130;1.208233;1.108541
6.140;1.216218;1.104508
6.150;1.224808;1.099681
6.160;1.233224;1.093726
6.170;1.240899;1.086389
6.180;1.247600;1.077651
6.190;1.253424;1.067817
6.200;1.258650;1.057496
6.210;1.263516;1.047452
6.220;1.268004;1.038353
6.230;1.271752;1.030535
6.240;1.274127;1.023892
6.250;1.274423;1.017958
6.260;1.272100;1.012148
6.270;1.266952;1.006034
6.280;1.259175;0.999540
6.290;1.249307;0.992969
6.300;1.238085;0.986887
6.310;1.226257;0.981918
6.320;1.214404;0.978539
6.330;1.202855;0.976941
6.340;1.191696;0.976958
6.350;1.180856;0.978084
6.360;1.170208;0.979566
6.370;1.159636;0.980580
6.380;1.149048;0.980446
6.390;1.138383;0.978801
6.400;1.127614;0.975662
6.410;1.116804;0.971359
6.420;1.106130;0.966389
6.430;1.095882;0.961275
6.440;1.086384;0.956488
6.450;1.077905;0.952411
6.460;1.070590;0.949299
6.470;1.064445;0.947218
6.480;1.059379;0.945980
6.490;1.055266;0.945124
6.500;1.052011;0.943998
6.510;1.049588;0.941931
6.520;1.048071;0.938444
6.530;1.047621;0.933419
6.540;1.048439;0.927149
6.550;1.050666;0.920250
6.560;1.054276;0.913461
6.570;1.059026;0.907428
6.580;1.064473;0.902575
6.590;1.070058;0.899095
6.600;1.075243;0.897029
6.610;1.079656;0.896338
6.620;1.083236;0.896899
6.630;1.086290;0.898434
6.640;1.089433;0.900426
6.650;1.093413;0.902095
6.660;1.098884;0.902473
6.670;1.106206;0.900572
6.680;1.115348;0.895603
6.690;1.125909;0.887214
6.700;1.137237;0.875644
6.710;1.148589;0.861733
6.720;1.159293;0.846728
6.730;1.168859;0.831926
6.740;1.177036;0.818294
6.750;1.183806;0.806218
6.760;1.189353;0.795476
6.770;1.194016;0.785433
6.780;1.198252;0.775355
6.790;1.202591;0.764720
6.800;1.207555;0.753393
6.810;1.213562;0.741642
6.820;1.220844;0.729990
6.830;1.229434;0.718976
6.840;1.239233;0.708891
6.850;1.250122;0.699625
6.860;1.262045;0.690677
6.870;1.274990;0.681366
6.880;1.288907;0.671144
6.890;1.303621;0.659845
6.900;1.318848;0.647721
6.910;1.334318;0.635244
6.920;1.349958;0.622797
6.930;1.366033;0.610433
6.940;1.383141;0.597853
6.950;1.402059;0.584594
6.960;1.423495;0.570333
6.970;1.447865;0.555122
6.980;1.475146;0.539444
6.990;1.504853;0.524071
7.000;1.536102;0.509802
7.010;1.567782;0.497201
7.020;1.598785;0.486451
7.030;1.628221;0.477377
7.040;1.655527;0.469610
7.050;1.680426;0.462781
7.060;1.702779;0.456666
7.070;1.722430;0.451218
7.080;1.739131;0.446530
7.090;1.752580;0.442750
7.100;1.762545;0.439991
7.110;1.769017;0.438239
7.120;1.772305;0.437303
7.130;1.773039;0.436839
7.140;1.772065;0.436434
7.150;1.770267;0.435721
7.160;1.768387;0.434479
7.170;1.766908;0.432695
7.180;1.766017;0.430571
7.190;1.765687;0.428493
7.200;1.765807;0.426979
7.210;1.766319;0.426592
7.220;1.767268;0.427804
7.230;1.768741;0.430836
7.240;1.770755;0.435516
7.250;1.773165;0.441249
7.260;1.775676;0.447119
7.270;1.777969;0.452126
7.280;1.779857;0.455454
7.290;1.781398;0.456698
7.300;1.782884;0.455943
7.310;1.784696;0.453698
7.320;1.787079;0.450706
7.330;1.789987;0.447713
7.340;1.793045;0.445246
7.350;1.795695;0.443492
7.360;1.797409;0.442301
7.370;1.797882;0.441341
7.380;1.797086;0.440301
7.390;1.795190;0.439052
7.400;1.792388;0.437670
7.410;1.788761;0.436302
7.420;1.784202;0.434993
7.430;1.778443;0.433556
7.440;1.771150;0.431591
7.450;1.762067;0.428651
7.460;1.751139;0.424464
7.470;1.738599;0.419095
7.480;1.724958;0.412957
7.490;1.710921;0.406683
7.500;1.697248;0.400920
7.510;1.684590;0.396151
7.520;1.673374;0.392603
7.530;1.663784;0.390233
7.540;1.655836;0.388787
7.550;1.649513;0.387904
7.560;1.644855;0.387244
7.570;1.641958;0.386603
7.580;1.640881;0.385975
7.590;1.641535;0.385533
7.600;1.643629;0.385513
7.610;1.646730;0.386058
7.620;1.650396;0.387106
7.630;1.654327;0.388367
7.640;1.658438;0.389412
7.650;1.662838;0.389822
7.660;1.667748;0.389369
7.670;1.673409;0.388142
7.680;1.680005;0.386566
7.690;1.687619;0.385270
7.700;1.696234;0.384838
7.710;1.705787;0.385591
7.720;1.716249;0.387508
7.730;1.727693;0.390313
7.740;1.740311;0.393631
7.750;1.754367;0.397129
7.760;1.770078;0.400566
7.770;1.787499;0.403759
7.780;1.806455;0.406525
7.790;1.826558;0.408674
7.800;1.847287;0.410088
7.810;1.868101;0.410834
7.820;1.888537;0.411194
7.830;1.908289;0.411586
7.840;1.927248;0.412399
7.850;1.945498;0.413853
7.860;1.963255;0.415938
7.870;1.980754;0.418470
7.880;1.998136;0.421226
7.890;2.015388;0.424085
7.900;2.032381;0.427110
7.910;2.048986;0.430520
7.920;2.065196;0.434563
7.930;2.081172;0.439351
7.940;2.097189;0.444762
7.950;2.113512;0.450465
7.960;2.130294;0.456078
7.970;2.147520;0.461351
7.980;2.165043;0.466281
7.990;2.182659;0.471073
8.000;2.200225;0.475975
8.010;2.217748;0.481081
8.020;2.235408;0.486232
8.030;2.253469;0.491068
8.040;2.272129;0.495178
8.050;2.291379;0.498251
8.060;2.310914;0.500153
8.070;2.330129;0.500909
8.080;2.348198;0.500630
8.090;2.364233;0.499448
8.100;2.377474;0.497525
8.110;2.387456;0.495098
8.120;2.394098;0.492523
8.130;2.397704;0.490242
8.140;2.398894;0.488668
8.150;2.398492;0.488040
8.160;2.397378;0.488329
8.170;2.396305;0.489231
8.180;2.395742;0.490265
8.190;2.395779;0.490970
8.200;2.396137;0.491103
8.210;2.396275;0.490766
8.220;2.395568;0.490365
8.230;2.393476;0.490421
8.240;2.389659;0.491305
8.250;2.383987;0.493069
8.260;2.376466;0.495463
