Time[s];COPx[cm];COPy[cm]
0.010;1.106296;0.508740
0.020;1.103683;0.502579
0.030;1.101728;0.496375
0.040;1.100780;0.490175
0.050;1.100664;0.484142
0.060;1.100743;0.478483
0.070;1.100163;0.473311
0.080;1.098149;0.468561
0.090;1.094216;0.464017
0.100;1.088226;0.459400
0.110;1.080324;0.454436
0.120;1.070828;0.448872
0.130;1.060147;0.442486
0.140;1.048733;0.435140
0.150;1.037068;0.426846
0.160;1.025675;0.417786
0.170;1.015114;0.408262
0.180;1.005934;0.398595
0.190;0.998578;0.389034
0.200;0.993271;0.379707
0.210;0.989963;0.370617
0.220;0.988341;0.361674
0.230;0.987901;0.352743
0.240;0.988014;0.343683
0.250;0.988007;0.334394
0.260;0.987277;0.324856
0.270;0.985471;0.315201
0.280;0.982662;0.305767
0.290;0.979400;0.297076
0.300;0.976551;0.289706
0.310;0.974967;0.284077
0.320;0.975135;0.280247
0.330;0.977011;0.277802
0.340;0.980119;0.275895
0.350;0.983824;0.273435
0.360;0.987594;0.269377
0.370;0.991106;0.263035
0.380;0.994184;0.254330
0.390;0.996699;0.243891
0.400;0.998501;0.232952
0.410;0.999433;0.223044
0.420;0.999383;0.215557
0.430;0.998334;0.211346
0.440;0.996393;0.210533
0.450;0.993805;0.212567
0.460;0.990969;0.216508
0.470;0.988445;0.221373
0.480;0.986900;0.226408
0.490;0.986950;0.231189
0.500;0.988926;0.235541
0.510;0.992674;0.239413
0.520;0.997497;0.242766
0.530;1.002276;0.245553
0.540;1.005772;0.247712
0.550;1.006983;0.249180
0.560;1.005446;0.249907
0.570;1.001340;0.249905
0.580;0.995355;0.249285
0.590;0.988413;0.248257
0.600;0.981353;0.247061
0.610;0.974741;0.245890
0.620;0.968808;0.244852
0.630;0.963512;0.243973
0.640;0.958617;0.243236
0.650;0.953756;0.242615
0.660;0.948483;0.242079
0.670;0.942360;0.241566
0.680;0.935130;0.240944
0.690;0.926917;0.239991
0.700;0.918347;0.238413
0.710;0.910449;0.235915
0.720;0.904369;0.232273
0.730;0.901002;0.227387
0.740;0.900683;0.221281
0.750;0.903074;0.214109
0.760;0.907248;0.206172
0.770;0.911983;0.197969
0.780;0.916132;0.190215
0.790;0.918940;0.183766
0.800;0.920179;0.179433
0.810;0.920065;0.177726
0.820;0.919044;0.178647
0.830;0.917562;0.181631
0.840;0.915934;0.185677
0.850;0.914330;0.189632
0.860;0.912823;0.192535
0.870;0.911424;0.193920
0.880;0.910075;0.193987
0.890;0.908624;0.193596
0.900;0.906823;0.194071
0.910;0.904379;0.196817
0.920;0.901078;0.202830
0.930;0.896909;0.212301
0.940;0.892139;0.224499
0.950;0.887245;0.238020
0.960;0.882731;0.251292
0.970;0.878889;0.263081
0.980;0.875644;0.272747
0.990;0.872574;0.280144
1.000;0.869124;0.285268
1.010;0.864903;0.287882
1.020;0.859879;0.287395
1.030;0.854367;0.283073
1.040;0.848810;0.274492
1.050;0.843496;0.261953
1.060;0.838358;0.246659
1.070;0.832974;0.230529
1.080;0.826744;0.215746
1.090;0.819172;0.204204
1.100;0.810088;0.197045
1.110;0.799759;0.194408
1.120;0.788813;0.195459
1.130;0.778030;0.198683
1.140;0.768064;0.202357
1.150;0.759208;0.205080
1.160;0.751317;0.206191
1.170;0.743904;0.205918
1.180;0.736358;0.205207
1.190;0.728177;0.205277
1.200;0.719119;0.207110
1.210;0.709216;0.211060
1.220;0.698692;0.216774
1.230;0.687864;0.223428
1.240;0.677102;0.230152
1.250;0.666812;0.236391
1.260;0.657391;0.242059
1.270;0.649118;0.247440
1.280;0.642044;0.252980
1.290;0.635956;0.259093
1.300;0.630438;0.266040
1.310;0.624990;0.273897
1.320;0.619152;0.282577
1.330;0.612597;0.291907
1.340;0.605175;0.301732
1.350;0.596902;0.311990
1.360;0.587932;0.322708
1.370;0.578550;0.333889
1.380;0.569183;0.345394
1.390;0.560406;0.356903
1.400;0.552876;0.368009
1.410;0.547186;0.378374
1.420;0.543673;0.387856
1.430;0.542293;0.396522
1.440;0.542632;0.404566
1.450;0.544072;0.412163
1.460;0.546016;0.419351
1.470;0.548033;0.425986
1.480;0.549852;0.431804
1.490;0.551255;0.436563
1.500;0.551995;0.440200
1.510;0.551833;0.442918
1.520;0.550706;0.445115
1.530;0.548890;0.447186
1.540;0.547045;0.449300
1.550;0.546067;0.451301
1.560;0.546793;0.452793
1.570;0.549674;0.453338
1.580;0.554560;0.452650
1.590;0.560711;0.450728
1.600;0.567051;0.447925
1.610;0.572603;0.444954
1.620;0.576909;0.442780
1.630;0.580238;0.442333
1.640;0.583491;0.444145
1.650;0.587846;0.448055
1.660;0.594327;0.453159
1.670;0.603462;0.458066
1.680;0.615115;0.461332
1.690;0.628485;0.461913
1.700;0.642265;0.459444
1.710;0.654927;0.454286
1.720;0.665112;0.447345
1.730;0.672042;0.439754
1.740;0.675793;0.432524
1.750;0.677304;0.426297
1.760;0.678093;0.421254
1.770;0.679772;0.417187
1.780;0.683545;0.413653
1.790;0.689850;0.410127
1.800;0.698287;0.406117
1.810;0.707845;0.401257
1.820;0.717337;0.395350
1.830;0.725825;0.388395
1.840;0.732875;0.380533
1.850;0.738569;0.371966
1.860;0.743349;0.362880
1.870;0.747827;0.353440
1.880;0.752621;0.343847
1.890;0.758252;0.334379
1.900;0.765056;0.325371
1.910;0.773128;0.317113
1.920;0.782293;0.309736
1.930;0.792149;0.303159
1.940;0.802170;0.297130
1.950;0.811832;0.291371
1.960;0.820703;0.285754
1.970;0.828466;0.280398
1.980;0.834912;0.275617
1.990;0.839925;0.271757
2.000;0.843460;0.269007
2.010;0.845513;0.267305
2.020;0.846079;0.266352
2.030;0.845134;0.265693
2.040;0.842674;0.264831
2.050;0.838808;0.263349
2.060;0.833849;0.261056
2.070;0.828332;0.258080
2.080;0.822940;0.254864
2.090;0.818315;0.251988
2.100;0.814846;0.249911
2.110;0.812493;0.248744
2.120;0.810772;0.248189
2.130;0.808911;0.247666
2.140;0.806124;0.246529
2.150;0.801900;0.244285
2.160;0.796180;0.240716
2.170;0.789389;0.235930
2.180;0.782287;0.230328
2.190;0.775698;0.224509
2.200;0.770187;0.219110
2.210;0.765836;0.214633
2.220;0.762229;0.211336
2.230;0.758665;0.209239
2.240;0.754494;0.208208
2.250;0.749390;0.208036
2.260;0.743449;0.208476
2.270;0.737108;0.209260
2.280;0.730976;0.210150
2.290;0.725661;0.211002
2.300;0.721615;0.211781
2.310;0.719000;0.212524
2.320;0.717607;0.213285
2.330;0.716884;0.214116
2.340;0.716094;0.215080
2.350;0.714544;0.216278
2.360;0.711773;0.217842
2.370;0.707609;0.219887
2.380;0.702145;0.222447
2.390;0.695700;0.225441
2.400;0.688793;0.228689
2.410;0.682117;0.231953
2.420;0.676444;0.235006
2.430;0.672440;0.237711
2.440;0.670446;0.240078
2.450;0.670341;0.242270
2.460;0.671563;0.244559
2.470;0.673299;0.247236
2.480;0.674756;0.250525
2.490;0.675389;0.254496
2.500;0.674982;0.259026
2.510;0.673599;0.263859
2.520;0.671452;0.268727
2.530;0.668818;0.273447
2.540;0.665995;0.277934
2.550;0.663271;0.282143
2.560;0.660845;0.285986
2.570;0.658726;0.289323
2.580;0.656679;0.292039
2.590;0.654273;0.294141
2.600;0.651037;0.295795
2.610;0.646657;0.297288
2.620;0.641139;0.298925
2.630;0.634857;0.300975
2.640;0.628426;0.303658
2.650;0.622471;0.307154
2.660;0.617354;0.311569
2.670;0.613019;0.316836
2.680;0.609017;0.322621
2.690;0.604706;0.328336
2.700;0.599492;0.333292
2.710;0.593006;0.336941
2.720;0.585132;0.339088
2.730;0.575940;0.339960
2.740;0.565603;0.340106
2.750;0.554402;0.340196
2.760;0.542792;0.340810
2.770;0.531473;0.342319
2.780;0.521348;0.344868
2.790;0.513345;0.348420
2.800;0.508108;0.352816
2.810;0.505693;0.357807
2.820;0.505411;0.363098
2.830;0.505934;0.368430
2.840;0.505657;0.373667
2.850;0.503183;0.378832
2.860;0.497710;0.384035
2.870;0.489190;0.389323
2.880;0.478247;0.394525
2.890;0.465958;0.399209
2.900;0.453585;0.402761
2.910;0.442319;0.404580
2.920;0.433091;0.404288
2.930;0.426462;0.401865
2.940;0.422581;0.397658
2.950;0.421197;0.392267
2.960;0.421709;0.386384
2.970;0.423274;0.380656
2.980;0.424991;0.375580
2.990;0.426129;0.371429
3.000;0.426318;0.368199
3.010;0.425608;0.365624
3.020;0.424357;0.363278
3.030;0.422987;0.360729
3.040;0.421760;0.357704
3.050;0.420673;0.354191
3.060;0.419520;0.350436
3.070;0.418061;0.346845
3.080;0.416212;0.343831
3.090;0.414194;0.341672
3.100;0.412563;0.340404
3.110;0.412113;0.339803
3.120;0.413661;0.339452
3.130;0.417761;0.338886
3.140;0.424473;0.337736
3.150;0.433289;0.335848
3.160;0.443279;0.333314
3.170;0.453400;0.330401
3.180;0.462812;0.327419
3.190;0.471097;0.324599
3.200;0.478278;0.322039
3.210;0.484705;0.319721
3.220;0.490840;0.317521
3.230;0.497075;0.315207
3.240;0.503605;0.312452
3.250;0.510401;0.308937
3.260;0.517262;0.304508
3.270;0.523900;0.299324
3.280;0.530055;0.293865
3.290;0.535571;0.288795
3.300;0.540411;0.284712
3.310;0.544604;0.281896
3.320;0.548170;0.280174
3.330;0.551071;0.278980
3.340;0.553202;0.277563
3.350;0.554410;0.275246
3.360;0.554520;0.271641
3.370;0.553377;0.266763
3.380;0.550919;0.261010
3.390;0.547268;0.255029
3.400;0.542817;0.249492
3.410;0.538256;0.244917
3.420;0.534498;0.241585
3.430;0.532503;0.239577
3.440;0.533019;0.238849
3.450;0.536354;0.239275
3.460;0.542272;0.240644
3.470;0.550069;0.242644
3.480;0.558796;0.244902
3.490;0.567534;0.247062
3.500;0.575574;0.248879
3.510;0.582460;0.250266
3.520;0.587885;0.251265
3.530;0.591568;0.251949
3.540;0.593197;0.252307
3.550;0.592503;0.252207
3.560;0.589398;0.251481
3.570;0.584074;0.250098
3.580;0.576983;0.248287
3.590;0.568685;0.246523
3.600;0.559670;0.245359
3.610;0.550250;0.245194
3.620;0.540562;0.246113
3.630;0.530641;0.247845
3.640;0.520519;0.249848
3.650;0.510294;0.251483
3.660;0.500186;0.252219
3.670;0.490575;0.251791
3.680;0.482035;0.250259
3.690;0.475301;0.247918
3.700;0.471137;0.245146
3.710;0.470107;0.242251
3.720;0.472340;0.239394
3.730;0.477406;0.236568
3.740;0.484349;0.233639
3.750;0.491874;0.230412
3.760;0.498645;0.226750
3.770;0.503596;0.222674
3.780;0.506184;0.218407
3.790;0.506505;0.214284
3.800;0.505239;0.210561
3.810;0.503469;0.207210
3.820;0.502419;0.203863
3.830;0.503184;0.199964
3.840;0.506455;0.195100
3.850;0.512304;0.189293
3.860;0.520097;0.183106
3.870;0.528605;0.177460
3.880;0.536300;0.173270
3.890;0.541727;0.171060
3.900;0.543830;0.170792
3.910;0.542149;0.171956
3.920;0.536880;0.173866
3.930;0.528809;0.175957
3.940;0.519158;0.177957
3.950;0.509364;0.179871
3.960;0.500803;0.181850
3.970;0.494525;0.183992
3.980;0.491047;0.186182
3.990;0.490297;0.188018
4.000;0.491722;0.188873
4.010;0.494532;0.188090
4.020;0.497973;0.185232
4.030;0.501523;0.180296
4.040;0.504926;0.173783
4.050;0.508070;0.166596
4.060;0.510828;0.159792
4.070;0.512955;0.154274
4.080;0.514113;0.150547
4.090;0.513989;0.148636
4.100;0.512442;0.148163
4.110;0.509607;0.148535
4.120;0.505942;0.149092
4.130;0.502162;0.149173
4.140;0.499077;0.148110
4.150;0.497339;0.145252
4.160;0.497197;0.140059
4.170;0.498326;0.132264
4.180;0.499832;0.122043
4.190;0.500442;0.110110
4.200;0.498856;0.097679
4.210;0.494164;0.086284
4.220;0.486192;0.077474
4.230;0.475646;0.072473
4.240;0.463973;0.071913
4.250;0.452971;0.075714
4.260;0.444271;0.083143
4.270;0.438887;0.093030
4.280;0.437008;0.104076
4.290;0.438096;0.115160
4.300;0.441205;0.125539
4.310;0.445355;0.134866
4.320;0.449800;0.143073
4.330;0.454112;0.150211
4.340;0.458081;0.156376
4.350;0.461546;0.161749
4.360;0.464270;0.166683
4.370;0.465940;0.171731
4.380;0.466275;0.177571
4.390;0.465118;0.184818
4.400;0.462436;0.193837
4.410;0.458234;0.204611
4.420;0.452461;0.216734
4.430;0.444997;0.229523
4.440;0.435746;0.242236
4.450;0.424809;0.254292
4.460;0.412626;0.265412
4.470;0.400002;0.275604
4.480;0.387953;0.285014
4.490;0.377446;0.293739
4.500;0.369121;0.301699
4.510;0.363096;0.308616
4.520;0.358883;0.314125
4.530;0.355413;0.317982
4.540;0.351183;0.320258
4.550;0.344556;0.321402
4.560;0.334172;0.322122
4.570;0.319359;0.323178
4.580;0.300382;0.325201
4.590;0.278439;0.328606
4.600;0.255393;0.333570
4.610;0.233353;0.340058
4.620;0.214225;0.347862
4.630;0.199352;0.356654
4.640;0.189289;0.366037
4.650;0.183738;0.375600
4.660;0.181692;0.384976
4.670;0.181723;0.393926
4.680;0.182357;0.402406
4.690;0.182371;0.410593
4.700;0.180939;0.418836
4.710;0.177625;0.427573
4.720;0.172325;0.437238
4.730;0.165258;0.448174
4.740;0.157028;0.460530
4.750;0.148670;0.474146
4.760;0.141558;0.488464
4.770;0.137126;0.502557
4.780;0.136463;0.515327
4.790;0.139933;0.525850
4.800;0.146972;0.533708
4.810;0.156157;0.539116
4.820;0.165549;0.542769
4.830;0.173228;0.545530
4.840;0.177851;0.548132
4.850;0.179073;0.551046
4.860;0.177676;0.554485
4.870;0.175360;0.558456
4.880;0.174237;0.562800
4.890;0.176196;0.567212
4.900;0.182362;0.571309
4.910;0.192852;0.574741
4.920;0.206896;0.577308
4.930;0.223215;0.579022
4.940;0.240455;0.580080
4.950;0.257480;0.580766
4.960;0.273485;0.581347
4.970;0.287981;0.582017
4.980;0.300752;0.582904
4.990;0.311844;0.584106
5.000;0.321547;0.585717
5.010;0.330352;0.587850
5.020;0.338881;0.590662
5.030;0.347803;0.594349
5.040;0.357772;0.599097
5.050;0.369372;0.605016
5.060;0.383029;0.612090
5.070;0.398897;0.620199
5.080;0.416740;0.629179
5.090;0.435894;0.638880
5.100;0.455379;0.649151
5.110;0.474157;0.659772
5.120;0.491417;0.670405
5.130;0.506743;0.680632
5.140;0.520086;0.690083
5.150;0.531605;0.698587
5.160;0.541478;0.706216
5.170;0.549777;0.713209
5.180;0.556433;0.719795
5.190;0.561258;0.726010
5.200;0.564031;0.731584
5.210;0.564650;0.735947
5.220;0.563322;0.738364
5.230;0.560698;0.738131
5.240;0.557834;0.734809
5.250;0.555945;0.728417
5.260;0.556018;0.719526
5.270;0.558495;0.709170
5.280;0.563165;0.698553
5.290;0.569325;0.688651
5.300;0.576085;0.679881
5.310;0.582653;0.672014
5.320;0.588483;0.664349
5.330;0.593280;0.656052
5.340;0.596928;0.646468
5.350;0.599424;0.635259
5.360;0.600853;0.622372
5.370;0.601381;0.607918
5.380;0.601228;0.592091
5.390;0.600592;0.575161
5.400;0.599576;0.557521
5.410;0.598200;0.539734
5.420;0.596514;0.522527
5.430;0.594751;0.506716
5.440;0.593388;0.493082
5.450;0.593069;0.482238
5.460;0.594424;0.474514
5.470;0.597868;0.469898
5.480;0.603436;0.468045
5.490;0.610706;0.468343
5.500;0.618819;0.470007
5.510;0.626619;0.472211
5.520;0.632908;0.474236
5.530;0.636716;0.475648
5.540;0.637514;0.476441
5.550;0.635270;0.477032
5.560;0.630371;0.478068
5.570;0.623464;0.480107
5.580;0.615295;0.483332
5.590;0.606596;0.487456
5.600;0.598016;0.491846
5.610;0.590125;0.495785
5.620;0.583472;0.498738
5.630;0.578646;0.500524
5.640;0.576255;0.501333
5.650;0.576775;0.501597
5.660;0.580320;0.501800
5.670;0.586449;0.502324
5.680;0.594110;0.503408
5.690;0.601776;0.505192
5.700;0.607753;0.507832
5.710;0.610561;0.511569
5.720;0.609314;0.516738
5.730;0.603936;0.523678
5.740;0.595176;0.532612
5.750;0.584376;0.543513
5.760;0.573121;0.556023
5.770;0.562887;0.569448
5.780;0.554796;0.582834
5.790;0.549504;0.595119
5.800;0.547158;0.605360
5.810;0.547399;0.612962
5.820;0.549435;0.617837
5.830;0.552241;0.620420
5.840;0.554869;0.621525
5.850;0.556759;0.622101
5.860;0.557910;0.622968
5.870;0.558818;0.624637
5.880;0.560203;0.627258
5.890;0.562651;0.630710
5.900;0.566334;0.634733
5.910;0.570951;0.639038
5.920;0.575877;0.643318
5.930;0.580433;0.647200
5.940;0.584119;0.650203
5.950;0.586693;0.651781
5.960;0.588096;0.651475
5.970;0.588299;0.649110
5.980;0.587181;0.644951
5.990;0.584533;0.639722
6.000;0.580178;0.634439
6.010;0.574176;0.630099
6.020;0.567012;0.627346
6.030;0.559674;0.626260
6.040;0.553563;0.626351
6.050;0.550199;0.626738
6.060;0.550819;0.626401
6.070;0.555949;0.624445
6.080;0.565116;0.620278
6.090;0.576809;0.613713
6.100;0.588728;0.604991
6.110;0.598293;0.594735
6.120;0.603249;0.583823
6.130;0.602211;0.573172
6.140;0.594986;0.563486
6.150;0.582589;0.555097
6.160;0.566975;0.547940
6.170;0.550575;0.541684
6.180;0.535785;0.535906
6.190;0.524499;0.530233
6.200;0.517752;0.524404
6.210;0.515551;0.518243
6.220;0.516924;0.511615
6.230;0.520211;0.504434
6.240;0.523527;0.496748
6.250;0.525285;0.488871
6.260;0.524601;0.481452
6.270;0.521475;0.475383
6.280;0.516654;0.471517
6.290;0.511256;0.470296
6.300;0.506281;0.471507
6.310;0.502213;0.474295
6.320;0.498852;0.477468
6.330;0.495439;0.479927
6.340;0.490998;0.481026
6.350;0.484752;0.480685
6.360;0.476433;0.479230
6.370;0.466395;0.477102
6.380;0.455532;0.474602
6.390;0.445050;0.471802
6.400;0.436155;0.468625
6.410;0.429766;0.465016
6.420;0.426310;0.461062
6.430;0.425671;0.457018
6.440;0.427236;0.453204
6.450;0.430025;0.449857
6.460;0.432868;0.447004
6.470;0.434637;0.444432
6.480;0.434471;0.441774
6.490;0.431935;0.438655
6.500;0.427043;0.434838
6.510;0.420186;0.430291
6.520;0.412003;0.425187
6.530;0.403251;0.419820
6.540;0.394722;0.414506
6.550;0.387170;0.409492
6.560;0.381212;0.404933
6.570;0.377176;0.400904
6.580;0.374963;0.397412
6.590;0.374028;0.394379
6.600;0.373578;0.391626
6.610;0.372899;0.388891
6.620;0.371660;0.385901
6.630;0.370017;0.382492
6.640;0.368459;0.378690
6.650;0.367472;0.374722
6.660;0.367195;0.370905
6.670;0.367236;0.367468
6.680;0.366772;0.364425
6.690;0.364879;0.361571
6.700;0.360940;0.358621
6.710;0.354959;0.355401
6.720;0.347612;0.351961
6.730;0.340056;0.348566
6.740;0.333558;0.345572
6.750;0.329121;0.343265
6.760;0.327218;0.341768
6.770;0.327736;0.341043
6.780;0.330097;0.340943
6.790;0.333511;0.341284
6.800;0.337234;0.341906
6.810;0.340758;0.342740
6.820;0.343889;0.343846
6.830;0.346700;0.345370
6.840;0.349396;0.347449
6.850;0.352145;0.350121
6.860;0.354926;0.353378
6.870;0.357462;0.357343
6.880;0.359242;0.362481
6.890;0.359626;0.369627
6.900;0.358009;0.379717
6.910;0.353975;0.393291
6.920;0.347420;0.409990
6.930;0.338628;0.428348
6.940;0.328298;0.446046
6.950;0.317489;0.460579
6.960;0.307457;0.470101
6.970;0.299363;0.474050
6.980;0.293917;0.473313
6.990;0.291107;0.469829
7.000;0.290141;0.465852
7.010;0.289659;0.463145
7.020;0.288154;0.462413
7.030;0.284444;0.463192
7.040;0.278035;0.464248
7.050;0.269241;0.464258
7.060;0.259008;0.462437
7.070;0.248525;0.458783
7.080;0.238780;0.453913
7.090;0.230257;0.448652
7.100;0.222890;0.443655
7.110;0.216231;0.439214
7.120;0.209752;0.435244
7.130;0.203113;0.431375
7.140;0.196297;0.427049
7.150;0.189607;0.421624
7.160;0.183537;0.414528
7.170;0.178577;0.405444
7.180;0.175006;0.394492
7.190;0.172756;0.382289
7.200;0.171399;0.369806
7.210;0.170295;0.358035
7.220;0.168829;0.347601
7.230;0.166626;0.338504
7.240;0.163675;0.330139
7.250;0.160324;0.321597
7.260;0.157185;0.312104
7.270;0.154958;0.301381
7.280;0.154214;0.289775
7.290;0.155156;0.278116
7.300;0.157491;0.267404
7.310;0.160459;0.258447
7.320;0.163058;0.251617
7.330;0.164342;0.246817
7.340;0.163686;0.243652
7.350;0.160921;0.241691
7.360;0.156343;0.240678
7.370;0.150603;0.240572
7.380;0.144566;0.241440
7.390;0.139185;0.243289
7.400;0.135423;0.245940
7.410;0.134179;0.249009
7.420;0.136153;0.252010
7.430;0.141624;0.254537
7.440;0.150218;0.256458
7.450;0.160802;0.258021
7.460;0.171606;0.259775
7.470;0.180599;0.262333
7.480;0.186011;0.266070
7.490;0.186840;0.270950
7.500;0.183152;0.276551
7.510;0.176074;0.282292
7.520;0.167478;0.287724
7.530;0.159461;0.292731
7.540;0.153758;0.297524
7.550;0.151265;0.302458
7.560;0.151781;0.307794
7.570;0.154086;0.313552
7.580;0.156334;0.319539
7.590;0.156656;0.325518
7.600;0.153843;0.331447
7.610;0.147866;0.337625
7.620;0.140038;0.344660
7.630;0.132666;0.353226
7.640;0.128292;0.363736
7.650;0.128815;0.376072
7.660;0.134838;0.389506
7.670;0.145471;0.402845
7.680;0.158617;0.414773
7.690;0.171603;0.424253
7.700;0.181952;0.430842
7.710;0.188039;0.434771
7.720;0.189448;0.436764
7.730;0.186907;0.437715
7.740;0.181878;0.438395
7.750;0.175958;0.439289
7.760;0.170368;0.440561
7.770;0.165708;0.442107
7.780;0.162048;0.443644
7.790;0.159239;0.444829
7.800;0.157243;0.445392
7.810;0.156306;0.445256
7.820;0.156900;0.444616
7.830;0.159490;0.443898
7.840;0.164237;0.443602
7.850;0.170804;0.444068
7.860;0.178340;0.445300
7.870;0.185712;0.446933
7.880;0.191891;0.448356
7.890;0.196337;0.448924
7.900;0.199210;0.448154
7.910;0.201288;0.445817
7.920;0.203639;0.441956
7.930;0.207219;0.436847
7.940;0.212587;0.430937
7.950;0.219819;0.424743
7.960;0.228614;0.418698
7.970;0.238466;0.413008
7.980;0.248819;0.407574
7.990;0.259156;0.402022
8.000;0.269019;0.395850
8.010;0.278030;0.388644
8.020;0.285921;0.380322
8.030;0.292572;0.371262
8.040;0.298020;0.362254
8.050;0.302425;0.354254
8.060;0.306004;0.348054
8.070;0.308996;0.343996
8.080;0.311647;0.341868
8.090;0.314243;0.341005
8.100;0.317130;0.340563
8.110;0.320700;0.339835
8.120;0.325337;0.338461
8.130;0.331335;0.336457
8.140;0.338820;0.334073
8.150;0.347730;0.331579
8.160;0.357850;0.329105
8.170;0.368865;0.326638
8.180;0.380390;0.324162
8.190;0.391964;0.321864
8.200;0.403051;0.320228
8.210;0.413091;0.319931
8.220;0.421614;0.321590
8.230;0.428392;0.325495
8.240;0.433541;0.331455
8.250;0.437525;0.338796
8.260;0.441039;0.346475
8.270;0.444821;0.353284
8.280;0.449486;0.358117
8.290;0.455435;0.360254
8.300;0.462844;0.359569
8.310;0.471686;0.356566
8.320;0.481738;0.352182
