Time[s];COPx[cm];COPy[cm]
0.010;-4.783787;1.514803
0.020;-4.758520;1.527139
0.030;-4.729478;1.538757
0.040;-4.693743;1.549068
0.050;-4.649532;1.557842
0.060;-4.596451;1.565251
0.070;-4.535339;1.571756
0.080;-4.467726;1.577902
0.090;-4.395091;1.584066
0.100;-4.318201;1.590243
0.110;-4.236782;1.595949
0.120;-4.149613;1.600284
0.130;-4.054969;1.602174
0.140;-3.951231;1.600743
0.150;-3.837464;1.595679
0.160;-3.713828;1.587416
0.170;-3.581749;1.577055
0.180;-3.443848;1.566076
0.190;-3.303644;1.556001
0.200;-3.165096;1.548117
0.210;-3.032049;1.543333
0.220;-2.907712;1.542142
0.230;-2.794268;1.544631
0.240;-2.692693;1.550532
0.250;-2.602773;1.559284
0.260;-2.523326;1.570134
0.270;-2.452612;1.582293
0.280;-2.388888;1.595108
0.290;-2.330957;1.608149
0.300;-2.278523;1.621149
0.310;-2.232195;1.633811
0.320;-2.193144;1.645601
0.330;-2.162586;1.655669
0.340;-2.141296;1.662952
0.350;-2.129342;1.666434
0.360;-2.126073;1.665415
0.370;-2.130285;1.659691
0.380;-2.140432;1.649609
0.390;-2.154748;1.636025
0.400;-2.171272;1.620171
0.410;-2.187818;1.603482
0.420;-2.201997;1.587397
0.430;-2.211385;1.573163
0.440;-2.213815;1.561635
0.450;-2.207697;1.553133
0.460;-2.192206;1.547435
0.470;-2.167272;1.543957
0.480;-2.133410;1.542058
0.490;-2.091484;1.541327
0.500;-2.042475;1.541689
0.510;-1.987293;1.543296
0.520;-1.926625;1.546293
0.530;-1.860840;1.550574
0.540;-1.789942;1.555667
0.550;-1.713628;1.560782
0.560;-1.631464;1.565038
0.570;-1.543186;1.567753
0.580;-1.449012;1.568692
0.590;-1.349838;1.568123
0.600;-1.247199;1.566666
0.610;-1.143020;1.564997
0.620;-1.039229;1.563583
0.630;-0.937370;1.562567
0.640;-0.838347;1.561844
0.650;-0.742363;1.561261
0.660;-0.649097;1.560834
0.670;-0.558044;1.560892
0.680;-0.468877;1.562090
0.690;-0.381681;1.565273
0.700;-0.296954;1.571234
0.710;-0.215424;1.580468
0.720;-0.137808;1.593015
0.730;-0.064642;1.608426
0.740;0.003758;1.625852
0.750;0.067232;1.644211
0.760;0.125658;1.662423
0.770;0.178873;1.679668
0.780;0.226710;1.695591
0.790;0.269159;1.710358
0.800;0.306565;1.724531
0.810;0.339718;1.738790
0.820;0.369727;1.753619
0.830;0.397700;1.769111
0.840;0.424344;1.784973
0.850;0.449718;1.800749
0.860;0.473247;1.816120
0.870;0.494032;1.831079
0.880;0.511304;1.845873
0.890;0.524824;1.860744
0.900;0.535072;1.875685
0.910;0.543184;1.890380
0.920;0.550658;1.904374
0.930;0.558939;1.917339
0.940;0.569017;1.929249
0.950;0.581179;1.940351
0.960;0.595023;1.950943
0.970;0.609702;1.961053
0.980;0.624276;1.970210
0.990;0.637967;1.977450
1.000;0.650242;1.981581
1.010;0.660701;1.981609
1.020;0.668881;1.977121
1.030;0.674023;1.968431
1.040;0.674901;1.956390
1.050;0.669808;1.941963
1.060;0.656757;1.925805
1.070;0.633917;1.908016
1.080;0.600136;1.888181
1.090;0.555329;1.865664
1.100;0.500537;1.840012
1.110;0.437609;1.811288
1.120;0.368644;1.780174
1.130;0.295431;1.747782
1.140;0.219127;1.715331
1.150;0.140288;1.683830
1.160;0.059205;1.653897
1.170;-0.023596;1.625727
1.180;-0.106928;1.599189
1.190;-0.188787;1.574002
1.200;-0.266586;1.549966
1.210;-0.337708;1.527136
1.220;-0.400173;1.505854
1.230;-0.453107;1.486604
1.240;-0.496806;1.469755
1.250;-0.532397;1.455323
1.260;-0.561303;1.442846
1.270;-0.584833;1.431408
1.280;-0.604043;1.419813
1.290;-0.619889;1.406881
1.300;-0.633507;1.391790
1.310;-0.646449;1.374348
1.320;-0.660740;1.355037
1.330;-0.678711;1.334809
1.340;-0.702666;1.314667
1.350;-0.734517;1.295271
1.360;-0.775473;1.276754
1.370;-0.825868;1.258897
1.380;-0.885104;1.241552
1.390;-0.951778;1.225085
1.400;-1.023964;1.210555
1.410;-1.099672;1.199473
1.420;-1.177352;1.193223
1.430;-1.256294;1.192455
1.440;-1.336739;1.196755
1.450;-1.419619;1.204701
1.460;-1.506007;1.214271
1.470;-1.596501;1.223391
1.480;-1.690799;1.230458
1.490;-1.787640;1.234662
1.500;-1.885066;1.236068
1.510;-1.980859;1.235488
1.520;-2.072921;1.234184
1.530;-2.159488;1.233508
1.540;-2.239171;1.234581
1.550;-2.310930;1.238078
1.560;-2.374042;1.244163
1.570;-2.428105;1.252528
1.580;-2.473060;1.262538
1.590;-2.509244;1.273403
1.600;-2.537434;1.284373
1.610;-2.558829;1.294909
1.620;-2.574934;1.304790
1.630;-2.587337;1.314084
1.640;-2.597467;1.322975
1.650;-2.606400;1.331517
1.660;-2.614813;1.339460
1.670;-2.623071;1.346256
1.680;-2.631373;1.351213
1.690;-2.639882;1.353689
1.700;-2.648732;1.353221
1.710;-2.657877;1.349549
1.720;-2.666850;1.342571
1.730;-2.674537;1.332314
1.740;-2.679112;1.318981
1.750;-2.678217;1.303067
1.760;-2.669344;1.285447
1.770;-2.650265;1.267325
1.780;-2.619339;1.249985
1.790;-2.575571;1.234454
1.800;-2.518432;1.221232
1.810;-2.447601;1.210239
1.820;-2.362839;1.201004
1.830;-2.264127;1.192993
1.840;-2.152012;1.185958
1.850;-2.027959;1.180147
1.860;-1.894477;1.176303
1.870;-1.754922;1.175440
1.880;-1.613043;1.178524
1.890;-1.472449;1.186178
1.900;-1.336180;1.198505
1.910;-1.206490;1.215035
1.920;-1.084872;1.234835
1.930;-0.972247;1.256770
1.940;-0.869208;1.279844
1.950;-0.776188;1.303449
1.960;-0.693503;1.327370
1.970;-0.621341;1.351555
1.980;-0.559761;1.375801
1.990;-0.508801;1.399569
2.000;-0.468657;1.421997
2.010;-0.439868;1.442066
2.020;-0.423369;1.458809
2.030;-0.420339;1.471488
2.040;-0.431872;1.479754
2.050;-0.458562;1.483773
2.060;-0.500154;1.484291
2.070;-0.555371;1.482588
2.080;-0.621988;1.480271
2.090;-0.697168;1.478915
2.100;-0.777979;1.479678
2.110;-0.861987;1.483014
2.120;-0.947706;1.488648
2.130;-1.034741;1.495796
2.140;-1.123532;1.503505
2.150;-1.214718;1.510945
2.160;-1.308294;1.517584
2.170;-1.402831;1.523286
2.180;-1.495103;1.528361
2.190;-1.580393;1.533537
2.200;-1.653529;1.539806
2.210;-1.710321;1.548158
2.220;-1.748823;1.559300
2.230;-1.769847;1.573478
2.240;-1.776552;1.590476
2.250;-1.773380;1.609769
2.260;-1.764879;1.630712
2.270;-1.754838;1.652697
2.280;-1.745875;1.675223
2.290;-1.739407;1.697956
2.300;-1.735868;1.720790
2.310;-1.735100;1.743893
2.320;-1.736841;1.767634
2.330;-1.741194;1.792351
2.340;-1.748901;1.818072
2.350;-1.761255;1.844361
2.360;-1.779633;1.870444
2.370;-1.804847;1.895579
2.380;-1.836602;1.919447
2.390;-1.873341;1.942332
2.400;-1.912580;1.964963
2.410;-1.951594;1.988108
2.420;-1.988160;2.012145
2.430;-2.021049;2.036818
2.440;-2.050120;2.061285
2.450;-2.076079;2.084423
2.460;-2.100031;2.105284
2.470;-2.122998;2.123499
2.480;-2.145500;2.139434
2.490;-2.167298;2.154029
2.500;-2.187353;2.168406
2.510;-2.204059;2.183450
2.520;-2.215691;2.199551
2.530;-2.220931;2.216623
2.540;-2.219270;2.234353
2.550;-2.211139;2.252585
2.560;-2.197736;2.271649
2.570;-2.180629;2.292494
2.580;-2.161303;2.316538
2.590;-2.140827;2.345321
2.600;-2.119766;2.380086
2.610;-2.098369;2.421424
2.620;-2.076870;2.469106
2.630;-2.055722;2.522094
2.640;-2.035599;2.578711
2.650;-2.017206;2.636867
2.660;-2.001043;2.694310
2.670;-1.987271;2.748855
2.680;-1.975753;2.798595
2.690;-1.966206;2.842048
2.700;-1.958370;2.878208
2.710;-1.952067;2.906480
2.720;-1.947142;2.926561
2.730;-1.943364;2.938341
2.740;-1.940391;2.941928
2.750;-1.937867;2.937752
2.760;-1.935591;2.926681
2.770;-1.933664;2.909996
2.780;-1.932523;2.889209
2.790;-1.932822;2.865774
2.800;-1.935194;2.840856
2.810;-1.939996;2.815256
2.820;-1.947122;2.789493
2.830;-1.955958;2.763979
2.840;-1.965470;2.739146
2.850;-1.974415;2.715455
2.860;-1.981582;2.693309
2.870;-1.986028;2.672901
2.880;-1.987246;2.654088
2.890;-1.985260;2.636342
2.900;-1.980603;2.618789
2.910;-1.974166;2.600315
2.920;-1.966953;2.579717
2.930;-1.959794;2.555902
2.940;-1.953127;2.528096
2.950;-1.946901;2.496006
2.960;-1.940622;2.459843
2.970;-1.933526;2.420188
2.980;-1.924817;2.377732
2.990;-1.913896;2.333027
3.000;-1.900472;2.286401
3.010;-1.884544;2.238069
3.020;-1.866280;2.188348
3.030;-1.845882;2.137816
3.040;-1.823517;2.087307
3.050;-1.799368;2.037731
3.060;-1.773722;1.989834
3.070;-1.747000;1.944016
3.080;-1.719617;1.900292
3.090;-1.691698;1.858390
3.100;-1.662831;1.817894
3.110;-1.632004;1.778355
3.120;-1.597831;1.739292
3.130;-1.558960;1.700151
3.140;-1.514506;1.660300
3.150;-1.464329;1.619165
3.160;-1.409077;1.576450
3.170;-1.350009;1.532332
3.180;-1.288705;1.487498
3.190;-1.226773;1.442970
3.200;-1.165660;1.399757
3.210;-1.106586;1.358495
3.220;-1.050583;1.319197
3.230;-0.998576;1.281266
3.240;-0.951429;1.243743
3.250;-0.909947;1.205657
3.260;-0.874847;1.166297
3.270;-0.846766;1.125298
3.280;-0.826339;1.082570
3.290;-0.814344;1.038146
3.300;-0.811828;0.992045
3.310;-0.820133;0.944203
3.320;-0.840757;0.894445
3.330;-0.875059;0.842527
3.340;-0.923851;0.788228
3.350;-0.986979;0.731516
3.360;-1.063053;0.672704
3.370;-1.149504;0.612478
3.380;-1.243018;0.551739
3.390;-1.340215;0.491319
3.400;-1.438356;0.431739
3.410;-1.535786;0.373168
3.420;-1.632009;0.315581
3.430;-1.727356;0.258953
3.440;-1.822432;0.203311
3.450;-1.917544;0.148613
3.460;-2.012343;0.094599
3.470;-2.105799;0.040788
3.480;-2.196485;-0.013307
3.490;-2.283004;-0.067854
3.500;-2.364345;-0.122441
3.510;-2.440039;-0.176034
3.520;-2.510093;-0.227168
3.530;-2.574823;-0.274289
3.540;-2.634686;-0.316103
3.550;-2.690191;-0.351840
3.560;-2.741891;-0.381370
3.570;-2.790450;-0.405152
3.580;-2.836699;-0.424034
3.590;-2.881616;-0.438999
3.600;-2.926171;-0.450958
3.610;-2.971073;-0.460632
3.620;-3.016525;-0.468507
3.630;-3.062075;-0.474828
3.640;-3.106681;-0.479624
3.650;-3.148974;-0.482796
3.660;-3.187658;-0.484283
3.670;-3.221894;-0.484290
3.680;-3.251493;-0.483486
3.690;-3.276849;-0.483018
3.700;-3.298665;-0.484314
3.710;-3.317600;-0.488722
3.720;-3.334008;-0.497169
3.730;-3.347820;-0.509966
3.740;-3.358578;-0.526807
3.750;-3.365575;-0.546887
3.760;-3.368061;-0.569077
3.770;-3.365485;-0.592079
3.780;-3.357698;-0.614572
3.790;-3.345011;-0.635379
3.800;-3.328069;-0.653639
3.810;-3.307579;-0.668906
3.820;-3.283987;-0.681098
3.830;-3.257256;-0.690294
3.840;-3.226783;-0.696445
3.850;-3.191505;-0.699127
3.860;-3.150162;-0.697431
3.870;-3.101683;-0.690044
3.880;-3.045604;-0.675543
3.890;-2.982425;-0.652832
3.900;-2.913792;-0.621619
3.910;-2.842428;-0.582755
3.920;-2.771784;-0.538245
3.930;-2.705525;-0.490885
3.940;-2.647006;-0.443612
3.950;-2.598911;-0.398841
3.960;-2.563125;-0.358056
3.970;-2.540807;-0.321807
3.980;-2.532558;-0.290009
3.990;-2.538558;-0.262334
4.000;-2.558626;-0.238456
4.010;-2.592230;-0.218110
4.020;-2.638561;-0.201009
4.030;-2.696676;-0.186803
4.040;-2.765617;-0.175123
4.050;-2.844389;-0.165666
4.060;-2.931758;-0.158215
4.070;-3.025947;-0.152497
4.080;-3.124382;-0.147944
4.090;-3.223639;-0.143462
4.100;-3.319608;-0.137375
4.110;-3.407841;-0.127648
4.120;-3.484002;-0.112324
4.130;-3.544339;-0.090032
4.140;-3.586130;-0.060328
4.150;-3.608060;-0.023731
4.160;-3.610453;0.018536
4.170;-3.595264;0.065012
4.180;-3.565737;0.114514
4.190;-3.525743;0.166527
4.200;-3.478958;0.221314
4.210;-3.428127;0.279682
4.220;-3.374689;0.342496
4.230;-3.318855;0.410125
4.240;-3.260090;0.482084
4.250;-3.197803;0.556988
4.260;-3.131979;0.632809
4.270;-3.063562;0.707275
4.280;-2.994502;0.778275
4.290;-2.927490;0.844143
4.300;-2.865463;0.903785
4.310;-2.811006;0.956647
4.320;-2.765760;1.002584
4.330;-2.730000;1.041741
4.340;-2.702513;1.074527
4.350;-2.680822;1.101647
4.360;-2.661743;1.124080
4.370;-2.642068;1.142958
4.380;-2.619180;1.159381
4.390;-2.591387;1.174280
4.400;-2.557935;1.188403
4.410;-2.518751;1.202412
4.420;-2.474075;1.217030
4.430;-2.424145;1.233135
4.440;-2.369067;1.251764
4.450;-2.308857;1.273995
4.460;-2.243556;1.300767
4.470;-2.173309;1.332688
4.480;-2.098334;1.369907
4.490;-2.018832;1.412078
4.500;-1.934940;1.458425
4.510;-1.846796;1.507859
4.520;-1.754676;1.559112
4.530;-1.659121;1.610872
4.540;-1.560937;1.661933
4.550;-1.461075;1.711308
4.560;-1.360444;1.758281
4.570;-1.259759;1.802382
4.580;-1.159482;1.843348
4.590;-1.059867;1.881103
4.600;-0.961085;1.915753
4.610;-0.863384;1.947588
4.620;-0.767211;1.977054
4.630;-0.673259;2.004745
4.640;-0.582434;2.031386
4.650;-0.495753;2.057791
4.660;-0.414198;2.084759
4.670;-0.338544;2.112954
4.680;-0.269196;2.142841
4.690;-0.206098;2.174736
4.700;-0.148760;2.208906
4.710;-0.096390;2.245653
4.720;-0.048054;2.285299
4.730;-0.002828;2.328028
4.740;0.040069;2.373644
4.750;0.081165;2.421328
4.760;0.120668;2.469550
4.770;0.158462;2.516207
4.780;0.194209;2.559003
4.790;0.227508;2.595960
4.800;0.258069;2.625880
4.810;0.285812;2.648537
4.820;0.310839;2.664549
4.830;0.333282;2.674956
4.840;0.353114;2.680723
4.850;0.370040;2.682342
4.860;0.383517;2.679711
4.870;0.392888;2.672297
4.880;0.397502;2.659473
4.890;0.396776;2.640811
4.900;0.390148;2.616182
4.910;0.376984;2.585647
4.920;0.356509;2.549283
4.930;0.327829;2.507050
4.940;0.290049;2.458803
4.950;0.242432;2.404422
4.960;0.184520;2.344017
4.970;0.116217;2.278142
4.980;0.037889;2.207945
4.990;-0.049472;2.135191
5.000;-0.144083;2.062106
5.010;-0.243362;1.991060
5.020;-0.344186;1.924150
5.030;-0.443369;1.862803
5.040;-0.538194;1.807573
5.050;-0.626739;1.758206
5.060;-0.707885;1.713954
5.070;-0.781020;1.673960
5.080;-0.845651;1.637519
5.090;-0.901124;1.604067
5.100;-0.946617;1.572908
5.110;-0.981322;1.542856
5.120;-1.004714;1.512071
5.130;-1.016738;1.478239
5.140;-1.017876;1.439111
5.150;-1.009083;1.393124
5.160;-0.991631;1.339849
5.170;-0.966943;1.280050
5.180;-0.936491;1.215351
5.190;-0.901778;1.147700
5.200;-0.864367;1.078866
5.210;-0.825871;1.010170
5.220;-0.787859;0.942505
5.230;-0.751702;0.876573
5.240;-0.718432;0.813183
5.250;-0.688695;0.753425
5.260;-0.662837;0.698601
5.270;-0.641049;0.649943
5.280;-0.623507;0.608272
5.290;-0.610416;0.573778
5.300;-0.601940;0.546019
5.310;-0.598108;0.524122
5.320;-0.598749;0.507105
5.330;-0.603551;0.494180
5.340;-0.612229;0.484930
5.350;-0.624768;0.479289
5.360;-0.641631;0.477386
5.370;-0.663831;0.479349
5.380;-0.692780;0.485193
5.390;-0.729917;0.494858
5.400;-0.776206;0.508334
5.410;-0.831718;0.525726
5.420;-0.895477;0.547137
5.430;-0.965697;0.572381
5.440;-1.040363;0.600679
5.450;-1.117918;0.630560
5.460;-1.197756;0.660082
5.470;-1.280315;0.687350
5.480;-1.366748;0.711138
5.490;-1.458300;0.731372
5.500;-1.555576;0.749251
5.510;-1.657916;0.766907
5.520;-1.763051;0.786720
5.530;-1.867220;0.810517
5.540;-1.965787;0.838961
5.550;-2.054239;0.871369
5.560;-2.129251;0.906028
5.570;-2.189411;0.940883
5.580;-2.235323;0.974286
5.590;-2.269081;1.005474
5.600;-2.293359;1.034601
5.610;-2.310516;1.062399
5.620;-2.322048;1.089655
5.630;-2.328533;1.116750
5.640;-2.330004;1.143425
5.650;-2.326502;1.168850
5.660;-2.318517;1.191931
5.670;-2.307110;1.211696
5.680;-2.293737;1.227591
5.690;-2.279929;1.239592
5.700;-2.266998;1.248102
5.710;-2.255828;1.253697
5.720;-2.246764;1.256830
5.730;-2.239568;1.257641
5.740;-2.233495;1.255966
5.750;-2.227512;1.251540
5.760;-2.220644;1.244276
5.770;-2.212325;1.234435
5.780;-2.202602;1.222575
5.790;-2.192087;1.209275
5.800;-2.181666;1.194785
5.810;-2.172107;1.178842
5.820;-2.163762;1.160813
5.830;-2.156498;1.140118
5.840;-2.149854;1.116666
5.850;-2.143325;1.091013
5.860;-2.136625;1.064113
5.870;-2.129825;1.036777
5.880;-2.123299;1.009159
5.890;-2.117538;0.980545
5.900;-2.112891;0.949588
5.910;-2.109377;0.914871
5.920;-2.106627;0.875525
5.930;-2.104036;0.831629
5.940;-2.101046;0.784247
5.950;-2.097463;0.735129
5.960;-2.093631;0.686218
5.970;-2.090351;0.639170
5.980;-2.088557;0.595053
5.990;-2.088917;0.554303
6.000;-2.091532;0.516926
6.010;-2.095849;0.482817
6.020;-2.100778;0.452072
6.030;-2.104999;0.425127
6.040;-2.107363;0.402650
6.050;-2.107275;0.385253
6.060;-2.104896;0.373157
6.070;-2.101043;0.365992
6.080;-2.096825;0.362846
6.090;-2.093182;0.362550
6.100;-2.090525;0.364061
6.110;-2.088628;0.366746
6.120;-2.086801;0.370453
6.130;-2.084224;0.375387
6.140;-2.080278;0.381896
6.150;-2.074699;0.390302
6.160;-2.067544;0.400795
6.170;-2.059028;0.413377
6.180;-2.049326;0.427840
6.190;-2.038398;0.443784
6.200;-2.025840;0.460694
6.210;-2.010787;0.478067
6.220;-1.991956;0.495594
6.230;-1.967872;0.513315
6.240;-1.937266;0.531666
6.250;-1.899500;0.551373
6.260;-1.854896;0.573193
6.270;-1.804833;0.597680
6.280;-1.751594;0.625051
6.290;-1.697968;0.655214
6.300;-1.646700;0.687916
6.310;-1.599947;0.722916
6.320;-1.558891;0.760094
6.330;-1.523657;0.799427
6.340;-1.493500;0.840821
6.350;-1.467220;0.883892
6.360;-1.443652;0.927819
6.370;-1.422092;0.971376
6.380;-1.402510;1.013150
6.390;-1.385479;1.051858
6.400;-1.371851;1.086637
6.410;-1.362335;1.117191
6.420;-1.357155;1.143768
6.430;-1.355923;1.166966
6.440;-1.357779;1.187403
6.450;-1.361703;1.205357
6.460;-1.366867;1.220516
6.470;-1.372883;1.231985
6.480;-1.379874;1.238582
6.490;-1.388380;1.239274
6.500;-1.399167;1.233550
6.510;-1.413050;1.221542
6.520;-1.430758;1.203892
6.530;-1.452873;1.181492
6.540;-1.479795;1.155219
6.550;-1.511693;1.125768
6.560;-1.548448;1.093590
6.570;-1.589582;1.058937
6.580;-1.634248;1.021974
6.590;-1.681291;0.982898
6.600;-1.729341;0.942009
6.610;-1.776901;0.899706
6.620;-1.822412;0.856430
6.630;-1.864330;0.812604
6.640;-1.901219;0.768627
6.650;-1.931840;0.724955
6.660;-1.955206;0.682202
6.670;-1.970601;0.641189
6.680;-1.977577;0.602862
6.690;-1.975949;0.568098
6.700;-1.965801;0.537461
6.710;-1.947502;0.511016
6.720;-1.921721;0.488310
6.730;-1.889430;0.468546
6.740;-1.851908;0.450862
6.750;-1.810706;0.434591
6.760;-1.767593;0.419366
6.770;-1.724439;0.405067
6.780;-1.683063;0.391629
6.790;-1.645085;0.378853
6.800;-1.611821;0.366295
6.810;-1.584225;0.353306
6.820;-1.562902;0.339204
6.830;-1.548206;0.323511
6.840;-1.540390;0.306156
6.850;-1.539740;0.287516
6.860;-1.546596;0.268280
6.870;-1.561196;0.249197
6.880;-1.583393;0.230851
6.890;-1.612374;0.213544
6.900;-1.646560;0.197352
6.910;-1.683806;0.182280
6.920;-1.721895;0.168424
6.930;-1.759171;0.156023
6.940;-1.794989;0.145346
6.950;-1.829769;0.136504
6.960;-1.864569;0.129301
6.970;-1.900389;0.123229
6.980;-1.937517;0.117630
6.990;-1.975180;0.111958
7.000;-2.011591;0.106044
7.010;-2.044348;0.100229
7.020;-2.071023;0.095297
7.030;-2.089794;0.092221
7.040;-2.099927;0.091803
7.050;-2.101955;0.094392
7.060;-2.097474;0.099830
7.070;-2.088640;0.107650
7.080;-2.077570;0.117431
7.090;-2.065868;0.129102
7.100;-2.054417;0.143030
7.110;-2.043458;0.159834
7.120;-2.032867;0.180051
7.130;-2.022513;0.203813
7.140;-2.012555;0.230673
7.150;-2.003573;0.259647
7.160;-1.996487;0.289486
7.170;-1.992292;0.319097
7.180;-1.991708;0.347944
7.190;-1.994881;0.376279
7.200;-2.001263;0.405072
7.210;-2.009725;0.435680
7.220;-2.018835;0.469373
7.230;-2.027199;0.506895
7.240;-2.033720;0.548196
7.250;-2.037696;0.592400
7.260;-2.038771;0.638015
7.270;-2.036774;0.683309
7.280;-2.031551;0.726768
7.290;-2.022862;0.767485
7.300;-2.010379;0.805326
7.310;-1.993785;0.840813
7.320;-1.972916;0.874774
7.330;-1.947910;0.907935
7.340;-1.919306;0.940637
7.350;-1.888066;0.972786
7.360;-1.855497;1.003998
7.370;-1.823091;1.033847
7.380;-1.792317;1.062074
7.390;-1.764408;1.088707
7.400;-1.740210;1.114002
7.410;-1.720111;1.138248
7.420;-1.704090;1.161498
7.430;-1.691872;1.183372
7.440;-1.683151;1.203079
7.450;-1.677799;1.219672
7.460;-1.676000;1.232464
7.470;-1.678298;1.241356
7.480;-1.685606;1.246914
7.490;-1.699163;1.250180
7.500;-1.720439;1.252321
7.510;-1.750937;1.254301
7.520;-1.791901;1.256690
7.530;-1.843999;1.259615
7.540;-1.907127;1.262830
7.550;-1.980471;1.265850
7.560;-2.062869;1.268129
7.570;-2.153292;1.269206
7.580;-2.251196;1.268772
7.590;-2.356529;1.266631
7.600;-2.469383;1.262627
7.610;-2.589443;1.256628
7.620;-2.715473;1.248605
7.630;-2.845038;1.238737
7.640;-2.974611;1.227449
7.650;-3.100099;1.215308
7.660;-3.217630;1.202833
7.670;-3.324309;1.190324
7.680;-3.418618;1.177843
7.690;-3.500337;1.165365
7.700;-3.570104;1.152993
7.710;-3.628823;1.141087
7.720;-3.677190;1.130236
7.730;-3.715461;1.121099
7.740;-3.743538;1.114237
7.750;-3.761303;1.109985
7.760;-3.769044;1.108398
7.770;-3.767773;1.109270
7.780;-3.759278;1.112261
7.790;-3.745837;1.117096
7.800;-3.729713;1.123758
7.810;-3.712625;1.132536
7.820;-3.695443;1.143867
7.830;-3.678239;1.158009
7.840;-3.660602;1.174694
7.850;-3.642051;1.192960
7.860;-3.622292;1.211308
7.870;-3.601244;1.228168
7.880;-3.578838;1.242480
7.890;-3.554730;1.254112
7.900;-3.528045;1.263911
7.910;-3.497262;1.273398
7.920;-3.460277;1.284263
7.930;-3.414706;1.297890
7.940;-3.358377;1.315070
7.950;-3.289943;1.335969
7.960;-3.209423;1.360257
7.970;-3.118465;1.387322
7.980;-3.020163;1.416448
