Time[s];COPx[cm];COPy[cm]
0.010;1.524309;-1.021930
0.020;1.519719;-1.029273
0.030;1.515379;-1.035697
0.040;1.511353;-1.040361
0.050;1.507428;-1.042638
0.060;1.503208;-1.042262
0.070;1.498327;-1.039437
0.080;1.492691;-1.034852
0.090;1.486604;-1.029541
0.100;1.480684;-1.024596
0.110;1.475608;-1.020851
0.120;1.471802;-1.018645
0.130;1.469217;-1.017798
0.140;1.467322;-1.017775
0.150;1.465267;-1.017967
0.160;1.462175;-1.017970
0.170;1.457418;-1.017730
0.180;1.450780;-1.017529
0.190;1.442464;-1.017826
0.200;1.432943;-1.019042
0.210;1.422748;-1.021372
0.220;1.412262;-1.024712
0.230;1.401615;-1.028719
0.240;1.390677;-1.032957
0.250;1.379151;-1.037017
0.260;1.366701;-1.040550
0.270;1.353078;-1.043233
0.280;1.338194;-1.044788
0.290;1.322144;-1.045091
0.300;1.305165;-1.044312
0.310;1.287596;-1.042943
0.320;1.269838;-1.041652
0.330;1.252351;-1.041008
0.340;1.235647;-1.041219
0.350;1.220219;-1.042026
0.360;1.206423;-1.042817
0.370;1.194329;-1.042907
0.380;1.183649;-1.041859
0.390;1.173789;-1.039677
0.400;1.164031;-1.036786
0.410;1.153767;-1.033849
0.420;1.142722;-1.031537
0.430;1.131044;-1.030381
0.440;1.119266;-1.030713
0.450;1.108122;-1.032668
0.460;1.098333;-1.036200
0.470;1.090412;-1.041076
0.480;1.084591;-1.046857
0.490;1.080848;-1.052909
0.500;1.078995;-1.058498
0.510;1.078761;-1.062958
0.520;1.079824;-1.065853
0.530;1.081829;-1.067056
0.540;1.084401;-1.066716
0.550;1.087177;-1.065165
0.560;1.089831;-1.062832
0.570;1.092093;-1.060209
0.580;1.093774;-1.057845
0.590;1.094792;-1.056314
0.600;1.095230;-1.056114
0.610;1.095378;-1.057530
0.620;1.095764;-1.060538
0.630;1.097121;-1.064841
0.640;1.100236;-1.070027
0.650;1.105720;-1.075765
0.660;1.113768;-1.081949
0.670;1.124070;-1.088706
0.680;1.135895;-1.096267
0.690;1.148307;-1.104758
0.700;1.160378;-1.114044
0.710;1.171354;-1.123723
0.720;1.180751;-1.133280
0.730;1.188402;-1.142290
0.740;1.194450;-1.150545
0.750;1.199278;-1.158043
0.760;1.203390;-1.164888
0.770;1.207258;-1.171179
0.780;1.211214;-1.176947
0.790;1.215403;-1.182165
0.800;1.219799;-1.186790
0.810;1.224255;-1.190826
0.820;1.228525;-1.194359
0.830;1.232277;-1.197553
0.840;1.235134;-1.200601
0.850;1.236790;-1.203655
0.860;1.237145;-1.206766
0.870;1.236416;-1.209880
0.880;1.235129;-1.212872
0.890;1.233962;-1.215619
0.900;1.233493;-1.218049
0.910;1.233930;-1.220142
0.920;1.234969;-1.221908
0.930;1.235836;-1.223347
0.940;1.235509;-1.224393
0.950;1.233008;-1.224854
0.960;1.227667;-1.224379
0.970;1.219311;-1.222507
0.980;1.208285;-1.218807
0.990;1.195351;-1.213068
1.000;1.181466;-1.205450
1.010;1.167509;-1.196498
1.020;1.154053;-1.187017
1.030;1.141260;-1.177831
1.040;1.128936;-1.169555
1.050;1.116703;-1.162458
1.060;1.104182;-1.156474
1.070;1.091128;-1.151336
1.080;1.077449;-1.146728
1.090;1.063159;-1.142394
1.100;1.048303;-1.138160
1.110;1.032908;-1.133910
1.120;1.016962;-1.129540
1.130;1.000421;-1.124947
1.140;0.983213;-1.120054
1.150;0.965246;-1.114848
1.160;0.946417;-1.109382
1.170;0.926634;-1.103710
1.180;0.905840;-1.097795
1.190;0.884048;-1.091462
1.200;0.861384;-1.084463
1.210;0.838102;-1.076608
1.220;0.814566;-1.067862
1.230;0.791168;-1.058335
1.240;0.768219;-1.048188
1.250;0.745838;-1.037545
1.260;0.723882;-1.026473
1.270;0.701977;-1.015004
1.280;0.679649;-1.003175
1.290;0.656525;-0.991042
1.300;0.632518;-0.978706
1.310;0.607892;-0.966349
1.320;0.583177;-0.954285
1.330;0.558948;-0.942984
1.340;0.535596;-0.932992
1.350;0.513197;-0.924745
1.360;0.491544;-0.918339
1.370;0.470309;-0.913399
1.380;0.449228;-0.909142
1.390;0.428214;-0.904633
1.400;0.407361;-0.899100
1.410;0.386877;-0.892178
1.420;0.367004;-0.883995
1.430;0.347958;-0.875088
1.440;0.329880;-0.866196
1.450;0.312800;-0.858043
1.460;0.296628;-0.851166
1.470;0.281173;-0.845849
1.480;0.266203;-0.842126
1.490;0.251527;-0.839836
1.500;0.237045;-0.838711
1.510;0.222755;-0.838478
1.520;0.208706;-0.838926
1.530;0.194934;-0.839914
1.540;0.181410;-0.841322
1.550;0.168040;-0.842983
1.560;0.154693;-0.844667
1.570;0.141246;-0.846137
1.580;0.127599;-0.847251
1.590;0.113662;-0.848026
1.600;0.099327;-0.848633
1.610;0.084509;-0.849308
1.620;0.069268;-0.850239
1.630;0.053997;-0.851493
1.640;0.039549;-0.853006
1.650;0.027175;-0.854608
1.660;0.018227;-0.856050
1.670;0.013727;-0.857045
1.680;0.014003;-0.857317
1.690;0.018551;-0.856678
1.700;0.026165;-0.855102
1.710;0.035276;-0.852749
1.720;0.044357;-0.849947
1.730;0.052284;-0.847134
1.740;0.058523;-0.844779
1.750;0.063110;-0.843254
1.760;0.066439;-0.842701
1.770;0.068980;-0.842951
1.780;0.071028;-0.843557
1.790;0.072569;-0.843949
1.800;0.073280;-0.843634
1.810;0.072647;-0.842358
1.820;0.070163;-0.840156
1.830;0.065539;-0.837268
1.840;0.058865;-0.834010
1.850;0.050654;-0.830662
1.860;0.041770;-0.827438
1.870;0.033225;-0.824504
1.880;0.025910;-0.821995
1.890;0.020342;-0.819995
1.900;0.016542;-0.818509
1.910;0.014087;-0.817436
1.920;0.012297;-0.816566
1.930;0.010457;-0.815602
1.940;0.007956;-0.814215
1.950;0.004352;-0.812130
1.960;-0.000633;-0.809251
1.970;-0.007146;-0.805752
1.980;-0.015221;-0.802071
1.990;-0.024795;-0.798779
2.000;-0.035693;-0.796368
2.010;-0.047616;-0.795053
2.020;-0.060149;-0.794687
2.030;-0.072815;-0.794823
2.040;-0.085166;-0.794902
2.050;-0.096858;-0.794491
2.060;-0.107678;-0.793430
2.070;-0.117527;-0.791845
2.080;-0.126392;-0.790027
2.090;-0.134337;-0.788251
2.100;-0.141489;-0.786640
2.110;-0.148008;-0.785138
2.120;-0.154047;-0.783599
2.130;-0.159702;-0.781903
2.140;-0.164971;-0.780068
2.150;-0.169721;-0.778295
2.160;-0.173681;-0.776964
2.170;-0.176489;-0.776576
2.180;-0.177816;-0.777647
2.190;-0.177513;-0.780574
2.200;-0.175697;-0.785511
2.210;-0.172695;-0.792331
2.220;-0.168894;-0.800669
2.230;-0.164579;-0.810023
2.240;-0.159848;-0.819827
2.250;-0.154633;-0.829510
2.260;-0.148794;-0.838543
2.270;-0.142216;-0.846504
2.280;-0.134869;-0.853146
2.290;-0.126806;-0.858470
2.300;-0.118136;-0.862763
2.310;-0.109017;-0.866574
2.320;-0.099677;-0.870589
2.330;-0.090416;-0.875429
2.340;-0.081573;-0.881479
2.350;-0.073444;-0.888810
2.360;-0.066200;-0.897235
2.370;-0.059840;-0.906445
2.380;-0.054183;-0.916176
2.390;-0.048881;-0.926347
2.400;-0.043454;-0.937109
2.410;-0.037374;-0.948766
2.420;-0.030214;-0.961597
2.430;-0.021808;-0.975671
2.440;-0.012325;-0.990750
2.450;-0.002217;-1.006301
2.460;0.007959;-1.021620
2.470;0.017731;-1.035989
2.480;0.026863;-1.048816
2.490;0.035391;-1.059713
2.500;0.043583;-1.068515
2.510;0.051847;-1.075270
2.520;0.060633;-1.080237
2.530;0.070344;-1.083876
2.540;0.081247;-1.086770
2.550;0.093388;-1.089491
2.560;0.106548;-1.092434
2.570;0.120272;-1.095723
2.580;0.133987;-1.099216
2.590;0.147178;-1.102609
2.600;0.159571;-1.105581
2.610;0.171245;-1.107924
2.620;0.182646;-1.109615
2.630;0.194459;-1.110817
2.640;0.207381;-1.111826
2.650;0.221853;-1.112998
2.660;0.237838;-1.114652
2.670;0.254758;-1.116992
2.680;0.271636;-1.120030
2.690;0.287425;-1.123533
2.700;0.301372;-1.127036
2.710;0.313253;-1.129962
2.720;0.323385;-1.131807
2.730;0.332431;-1.132323
2.740;0.341110;-1.131577
2.750;0.349950;-1.129902
2.760;0.359185;-1.127766
2.770;0.368805;-1.125656
2.780;0.378694;-1.123978
2.790;0.388766;-1.122991
2.800;0.399018;-1.122759
2.810;0.409524;-1.123136
2.820;0.420364;-1.123826
2.830;0.431554;-1.124497
2.840;0.442986;-1.124908
2.850;0.454405;-1.124969
2.860;0.465439;-1.124704
2.870;0.475655;-1.124152
2.880;0.484630;-1.123271
2.890;0.491988;-1.121928
2.900;0.497424;-1.119970
2.910;0.500733;-1.117351
2.920;0.501870;-1.114218
2.930;0.501016;-1.110905
2.940;0.498599;-1.107829
2.950;0.495239;-1.105354
2.960;0.491607;-1.103697
2.970;0.488255;-1.102903
2.980;0.485471;-1.102883
2.990;0.483220;-1.103468
3.000;0.481175;-1.104473
3.010;0.478833;-1.105750
3.020;0.475648;-1.107205
3.030;0.471132;-1.108804
3.040;0.464891;-1.110562
3.050;0.456634;-1.112530
3.060;0.446200;-1.114765
3.070;0.433624;-1.117299
3.080;0.419203;-1.120104
3.090;0.403502;-1.123060
3.100;0.387261;-1.125939
3.110;0.371225;-1.128419
3.120;0.355981;-1.130151
3.130;0.341885;-1.130871
3.140;0.329095;-1.130507
3.150;0.317655;-1.129220
3.160;0.307550;-1.127348
3.170;0.298707;-1.125277
3.180;0.290960;-1.123337
3.190;0.284051;-1.121763
3.200;0.277693;-1.120743
3.210;0.271646;-1.120472
3.220;0.265761;-1.121166
3.230;0.259958;-1.123016
3.240;0.254148;-1.126106
3.250;0.248172;-1.130334
3.260;0.241806;-1.135406
3.270;0.234859;-1.140893
3.280;0.227301;-1.146341
3.290;0.219340;-1.151358
3.300;0.211364;-1.155669
3.310;0.203801;-1.159154
3.320;0.196944;-1.161870
3.330;0.190856;-1.164041
3.340;0.185379;-1.165986
3.350;0.180245;-1.168021
3.360;0.175197;-1.170354
3.370;0.170050;-1.173024
3.380;0.164667;-1.175878
3.390;0.158872;-1.178600
3.400;0.152384;-1.180819
3.410;0.144840;-1.182252
3.420;0.135936;-1.182849
3.430;0.125624;-1.182827
3.440;0.114268;-1.182586
3.450;0.102664;-1.182540
3.460;0.091890;-1.182966
3.470;0.083055;-1.183931
3.480;0.077029;-1.185318
3.490;0.074246;-1.186915
3.500;0.074649;-1.188508
3.510;0.077756;-1.189948
3.520;0.082831;-1.191176
3.530;0.089116;-1.192182
3.540;0.096033;-1.192938
3.550;0.103310;-1.193347
3.560;0.110956;-1.193240
3.570;0.119127;-1.192419
3.580;0.127930;-1.190719
3.590;0.137281;-1.188064
3.600;0.146861;-1.184499
3.610;0.156209;-1.180225
3.620;0.164902;-1.175585
3.630;0.172750;-1.171019
3.640;0.179902;-1.166972
3.650;0.186823;-1.163777
3.660;0.194150;-1.161566
3.670;0.202515;-1.160248
3.680;0.212398;-1.159552
3.690;0.224034;-1.159131
3.700;0.237401;-1.158659
3.710;0.252250;-1.157903
3.720;0.268176;-1.156771
3.730;0.284696;-1.155316
3.740;0.301321;-1.153708
3.750;0.317620;-1.152163
3.760;0.333244;-1.150851
3.770;0.347920;-1.149829
3.780;0.361443;-1.149023
3.790;0.373697;-1.148272
3.800;0.384700;-1.147419
3.810;0.394637;-1.146420
3.820;0.403818;-1.145423
3.830;0.412573;-1.144790
3.840;0.421092;-1.145034
3.850;0.429319;-1.146687
3.860;0.436950;-1.150128
3.870;0.443581;-1.155429
3.880;0.448908;-1.162270
3.890;0.452913;-1.169982
3.900;0.455940;-1.177737
3.910;0.458635;-1.184819
3.920;0.461793;-1.190849
3.930;0.466149;-1.195881
3.940;0.472231;-1.200326
3.950;0.480298;-1.204753
3.960;0.490402;-1.209625
3.970;0.502496;-1.215074
3.980;0.516543;-1.220804
3.990;0.532531;-1.226198
4.000;0.550416;-1.230587
4.010;0.570003;-1.233566
4.020;0.590901;-1.235198
4.030;0.612587;-1.236001
4.040;0.634597;-1.236753
4.050;0.656734;-1.238216
4.060;0.679187;-1.240925
4.070;0.702491;-1.245060
4.080;0.727357;-1.250451
4.090;0.754453;-1.256664
4.100;0.784240;-1.263183
4.110;0.816882;-1.269584
4.120;0.852234;-1.275650
4.130;0.889860;-1.281347
4.140;0.929087;-1.286700
4.150;0.969081;-1.291678
4.160;1.008962;-1.296178
4.170;1.047920;-1.300135
4.180;1.085298;-1.303672
4.190;1.120617;-1.307155
4.200;1.153567;-1.311090
4.210;1.184002;-1.315874
4.220;1.211971;-1.321538
4.230;1.237769;-1.327639
4.240;1.261980;-1.333397
4.250;1.285467;-1.338011
4.260;1.309263;-1.341003
4.270;1.334384;-1.342439
4.280;1.361605;-1.342937
4.290;1.391254;-1.343478
4.300;1.423146;-1.345091
4.310;1.456647;-1.348530
4.320;1.490869;-1.354031
4.330;1.524862;-1.361242
4.340;1.557774;-1.369348
4.350;1.588942;-1.377316
4.360;1.617970;-1.384187
4.370;1.644764;-1.389299
4.380;1.669485;-1.392387
4.390;1.692408;-1.393549
4.400;1.713723;-1.393118
4.410;1.733361;-1.391484
4.420;1.750962;-1.388957
4.430;1.766002;-1.385692
4.440;1.778046;-1.381696
4.450;1.786998;-1.376895
4.460;1.793227;-1.371224
4.470;1.797485;-1.364727
4.480;1.800671;-1.357628
4.490;1.803557;-1.350358
4.500;1.806603;-1.343472
4.510;1.809913;-1.337477
4.520;1.813317;-1.332614
4.530;1.816508;-1.328704
4.540;1.819171;-1.325160
4.550;1.821069;-1.321169
4.560;1.822076;-1.315982
4.570;1.822193;-1.309160
4.580;1.821550;-1.300685
4.590;1.820410;-1.290917
4.600;1.819148;-1.280436
4.610;1.818217;-1.269858
4.620;1.818095;-1.259670
4.630;1.819200;-1.250127
4.640;1.821806;-1.241172
4.650;1.825958;-1.232448
4.660;1.831450;-1.223406
4.670;1.837865;-1.213530
4.680;1.844683;-1.202559
4.690;1.851387;-1.190616
4.700;1.857546;-1.178124
4.710;1.862848;-1.165579
4.720;1.867104;-1.153284
4.730;1.870217;-1.141203
4.740;1.872130;-1.128977
4.750;1.872769;-1.116063
4.760;1.872020;-1.101923
4.770;1.869761;-1.086188
4.780;1.865928;-1.068770
4.790;1.860569;-1.049873
4.800;1.853850;-1.029909
4.810;1.846016;-1.009346
4.820;1.837327;-0.988564
4.830;1.828001;-0.967742
4.840;1.818200;-0.946849
4.850;1.808044;-0.925717
4.860;1.797644;-0.904198
4.870;1.787106;-0.882306
4.880;1.776491;-0.860271
4.890;1.765752;-0.838467
4.900;1.754666;-0.817229
4.910;1.742807;-0.796679
4.920;1.729564;-0.776640
4.930;1.714233;-0.756704
4.940;1.696156;-0.736398
4.950;1.674896;-0.715349
4.960;1.650388;-0.693382
4.970;1.623009;-0.670537
4.980;1.593496;-0.647052
4.990;1.562747;-0.623337
5.000;1.531563;-0.599928
5.010;1.500454;-0.577387
5.020;1.469541;-0.556161
5.030;1.438576;-0.536434
5.040;1.407031;-0.518057
5.050;1.374245;-0.500595
5.060;1.339628;-0.483465
5.070;1.302883;-0.466133
5.080;1.264175;-0.448272
5.090;1.224147;-0.429868
5.100;1.183756;-0.411258
5.110;1.143987;-0.393111
5.120;1.105559;-0.376316
5.130;1.068737;-0.361803
5.140;1.033314;-0.350313
5.150;0.998742;-0.342191
5.160;0.964373;-0.337280
5.170;0.929710;-0.334949
5.180;0.894599;-0.334263
5.190;0.859303;-0.334253
5.200;0.824437;-0.334216
5.210;0.790793;-0.333939
5.220;0.759095;-0.333712
5.230;0.729771;-0.334134
5.240;0.702820;-0.335786
5.250;0.677842;-0.338950
5.260;0.654214;-0.343515
5.270;0.631334;-0.349057
5.280;0.608822;-0.355047
5.290;0.586604;-0.361057
5.300;0.564856;-0.366908
5.310;0.543858;-0.372712
5.320;0.523824;-0.378823
5.330;0.504789;-0.385731
5.340;0.486553;-0.393916
5.350;0.468713;-0.403703
5.360;0.450756;-0.415165
5.370;0.432226;-0.428094
5.380;0.412917;-0.442062
5.390;0.393032;-0.456526
5.400;0.373198;-0.470943
5.410;0.354334;-0.484870
5.420;0.337411;-0.498007
5.430;0.323220;-0.510196
5.440;0.312240;-0.521357
5.450;0.304628;-0.531427
5.460;0.300292;-0.540341
5.470;0.298982;-0.548055
5.480;0.300354;-0.554594
5.490;0.303978;-0.560073
5.500;0.309340;-0.564685
5.510;0.315866;-0.568679
5.520;0.322993;-0.572321
5.530;0.330283;-0.575853
5.540;0.337523;-0.579484
5.550;0.344762;-0.583395
5.560;0.352250;-0.587753
5.570;0.360313;-0.592684
5.580;0.369234;-0.598218
5.590;0.379212;-0.604231
5.600;0.390394;-0.610424
5.610;0.402931;-0.616359
5.620;0.417002;-0.621535
5.630;0.432787;-0.625480
5.640;0.450397;-0.627841
5.650;0.469805;-0.628473
5.660;0.490782;-0.627529
5.670;0.512915;-0.625480
5.680;0.535691;-0.623023
5.690;0.558631;-0.620879
5.700;0.581374;-0.619554
5.710;0.603669;-0.619159
5.720;0.625285;-0.619399
5.730;0.645922;-0.619723
5.740;0.665182;-0.619599
5.750;0.682631;-0.618759
5.760;0.697914;-0.617294
5.770;0.710911;-0.615542
5.780;0.721839;-0.613867
5.790;0.731265;-0.612451
5.800;0.739996;-0.611209
5.810;0.748888;-0.609846
5.820;0.758641;-0.607968
5.830;0.769650;-0.605203
5.840;0.781943;-0.601261
5.850;0.795185;-0.595984
5.860;0.808736;-0.589384
5.870;0.821776;-0.581705
5.880;0.833493;-0.573437
5.890;0.843280;-0.565282
5.900;0.850864;-0.558015
5.910;0.856307;-0.552292
5.920;0.859908;-0.548459
5.930;0.862039;-0.546473
5.940;0.863018;-0.545963
5.950;0.863031;-0.546429
5.960;0.862150;-0.547475
5.970;0.860377;-0.548967
5.980;0.857664;-0.551027
5.990;0.853905;-0.553897
6.000;0.848927;-0.557724
6.010;0.842548;-0.562405
6.020;0.834671;-0.567559
6.030;0.825359;-0.572613
6.040;0.814817;-0.576953
6.050;0.803302;-0.580044
6.060;0.790989;-0.581535
6.070;0.777886;-0.581330
6.080;0.763838;-0.579635
6.090;0.748642;-0.576925
6.100;0.732234;-0.573828
6.110;0.714848;-0.570939
6.120;0.697069;-0.568647
6.130;0.679717;-0.567046
6.140;0.663607;-0.565944
6.150;0.649309;-0.564947
6.160;0.637011;-0.563603
6.170;0.626546;-0.561583
6.180;0.617557;-0.558842
6.190;0.609684;-0.555704
6.200;0.602689;-0.552767
6.210;0.596419;-0.550672
6.220;0.590701;-0.549804
6.230;0.585233;-0.550066
6.240;0.579566;-0.550825
6.250;0.573160;-0.551040
6.260;0.565485;-0.549581
6.270;0.556113;-0.545622
6.280;0.544791;-0.538982
6.290;0.531471;-0.530286
6.300;0.516326;-0.520867
6.310;0.499735;-0.512403
6.320;0.482255;-0.506426
6.330;0.464527;-0.503828
6.340;0.447142;-0.504587
6.350;0.430493;-0.507809
6.360;0.414672;-0.512112
6.370;0.399443;-0.516164
6.380;0.384331;-0.519157
6.390;0.368805;-0.521029
6.400;0.352483;-0.522378
6.410;0.335270;-0.524135
6.420;0.317382;-0.527139
6.430;0.299269;-0.531786
6.440;0.281497;-0.537862
6.450;0.264611;-0.544611
6.460;0.249035;-0.550996
6.470;0.235002;-0.556039
6.480;0.222562;-0.559118
6.490;0.211669;-0.560105
6.500;0.202300;-0.559317
6.510;0.194541;-0.557328
6.520;0.188607;-0.554738
6.530;0.184765;-0.552033
6.540;0.183227;-0.549589
6.550;0.184054;-0.547776
6.560;0.187117;-0.547048
6.570;0.192111;-0.547895
6.580;0.198617;-0.550655
6.590;0.206205;-0.555304
6.600;0.214552;-0.561370
6.610;0.223565;-0.568040
6.620;0.233420;-0.574411
6.630;0.244509;-0.579764
6.640;0.257279;-0.583741
6.650;0.272027;-0.586378
6.660;0.288725;-0.588012
6.670;0.306932;-0.589108
6.680;0.325880;-0.590101
6.690;0.344681;-0.591284
6.700;0.362593;-0.592753
6.710;0.379214;-0.594417
6.720;0.394528;-0.596075
6.730;0.408804;-0.597570
6.740;0.422410;-0.598909
6.750;0.435634;-0.600276
6.760;0.448602;-0.601937
6.770;0.461304;-0.604097
6.780;0.473699;-0.606817
6.790;0.485809;-0.610033
6.800;0.497746;-0.613619
6.810;0.509672;-0.617427
6.820;0.521726;-0.621280
6.830;0.533995;-0.624923
6.840;0.546548;-0.628023
6.850;0.559481;-0.630236
6.860;0.572930;-0.631341
6.870;0.587065;-0.631335
6.880;0.602080;-0.630419
6.890;0.618174;-0.628878
6.900;0.635518;-0.626939
6.910;0.654206;-0.624686
6.920;0.674193;-0.622051
6.930;0.695243;-0.618883
6.940;0.716929;-0.615021
6.950;0.738693;-0.610371
6.960;0.759986;-0.604928
6.970;0.780417;-0.598759
6.980;0.799852;-0.591968
6.990;0.818429;-0.584692
7.000;0.836500;-0.577125
7.010;0.854515;-0.569575
7.020;0.872897;-0.562473
7.030;0.891930;-0.556320
7.040;0.911701;-0.551540
7.050;0.932102;-0.548314
7.060;0.952907;-0.546503
7.070;0.973868;-0.545702
7.080;0.994763;-0.545416
7.090;1.015393;-0.545274
7.100;1.035574;-0.545160
7.110;1.055201;-0.545209
7.120;1.074382;-0.545673
7.130;1.093573;-0.546760
7.140;1.113603;-0.548499
7.150;1.135562;-0.550681
7.160;1.160527;-0.552879
7.170;1.189277;-0.554577
7.180;1.222075;-0.555362
7.190;1.258645;-0.555088
7.200;1.298312;-0.553906
7.210;1.340230;-0.552136
7.220;1.383581;-0.550095
7.230;1.427667;-0.547977
7.240;1.471906;-0.545847
7.250;1.515766;-0.543722
7.260;1.558703;-0.541671
7.270;1.600137;-0.539848
7.280;1.639470;-0.538453
7.290;1.676173;-0.537650
7.300;1.709921;-0.537500
7.310;1.740757;-0.537993
7.320;1.769186;-0.539143
7.330;1.796104;-0.541081
7.340;1.822560;-0.544054
7.350;1.849433;-0.548317
7.360;1.877194;-0.553958
7.370;1.905834;-0.560756
7.380;1.934952;-0.568149
7.390;1.963921;-0.575360
7.400;1.992056;-0.581650
7.410;2.018745;-0.586567
7.420;2.043567;-0.590071
7.430;2.066386;-0.592482
7.440;2.087358;-0.594291
7.450;2.106846;-0.595943
7.460;2.125243;-0.597725
7.470;2.142817;-0.599780
7.480;2.159625;-0.602195
7.490;2.175532;-0.605051
7.500;2.190276;-0.608396
7.510;2.203518;-0.612178
7.520;2.214858;-0.616203
7.530;2.223837;-0.620137
7.540;2.229968;-0.623534
7.550;2.232818;-0.625895
7.560;2.232114;-0.626757
7.570;2.227843;-0.625798
7.580;2.220267;-0.622936
7.590;2.209848;-0.618396
7.600;2.197098;-0.612712
7.610;2.182426;-0.606618
7.620;2.166048;-0.600847
7.630;2.147974;-0.595847
7.640;2.128043;-0.591575
7.650;2.106000;-0.587498
7.660;2.081576;-0.582853
7.670;2.054564;-0.577058
7.680;2.024854;-0.570047
7.690;1.992412;-0.562348
7.700;1.957228;-0.554856
7.710;1.919252;-0.548439
7.720;1.878345;-0.543578
7.730;1.834275;-0.540223
7.740;1.786782;-0.537906
7.750;1.735704;-0.536022
7.760;1.681126;-0.534122
7.770;1.623442;-0.532060
7.780;1.563309;-0.529946
7.790;1.501534;-0.527942
7.800;1.438955;-0.526013
7.810;1.376370;-0.523793
7.820;1.314519;-0.520679
7.830;1.254050;-0.516132
7.840;1.195462;-0.510018
7.850;1.139018;-0.502768
7.860;1.084672;-0.495235
7.870;1.032086;-0.488344
7.880;0.980721;-0.482736
7.890;0.929999;-0.478598
7.900;0.879467;-0.475737
7.910;0.828930;-0.473807
7.920;0.778521;-0.472537
7.930;0.728669;-0.471844
7.940;0.679977;-0.471787
7.950;0.633047;-0.472457
7.960;0.588316;-0.473879
