Time[s];COPx[cm];COPy[cm]
0.010;-1.929306;1.739164
0.020;-1.922904;1.745842
0.030;-1.915024;1.751990
0.040;-1.904806;1.757253
0.050;-1.892328;1.761594
0.060;-1.878601;1.765245
0.070;-1.865250;1.768530
0.080;-1.854016;1.771639
0.090;-1.846250;1.774460
0.100;-1.842566;1.776584
0.110;-1.842758;1.777485
0.120;-1.845984;1.776794
0.130;-1.851142;1.774498
0.140;-1.857264;1.770958
0.150;-1.863791;1.766741
0.160;-1.870650;1.762353
0.170;-1.878152;1.757995
0.180;-1.886801;1.753445
0.190;-1.897101;1.748120
0.200;-1.909438;1.741283
0.210;-1.924033;1.732333
0.220;-1.940914;1.721045
0.230;-1.959874;1.707664
0.240;-1.980432;1.692831
0.250;-2.001857;1.677365
0.260;-2.023294;1.662036
0.270;-2.043937;1.647405
0.280;-2.063195;1.633752
0.290;-2.080770;1.621089
0.300;-2.096663;1.609232
0.310;-2.111098;1.597916
0.320;-2.124418;1.586944
0.330;-2.136959;1.576358
0.340;-2.148946;1.566531
0.350;-2.160418;1.558136
0.360;-2.171248;1.551957
0.370;-2.181219;1.548639
0.380;-2.190144;1.548479
0.390;-2.197943;1.551354
0.400;-2.204660;1.556796
0.410;-2.210410;1.564151
0.420;-2.215308;1.572748
0.430;-2.219396;1.582024
0.440;-2.222578;1.591596
0.450;-2.224606;1.601307
0.460;-2.225082;1.611244
0.470;-2.223529;1.621709
0.480;-2.219495;1.633094
0.490;-2.212688;1.645699
0.500;-2.203092;1.659542
0.510;-2.191020;1.674278
0.520;-2.177095;1.689252
0.530;-2.162145;1.703685
0.540;-2.147037;1.716913
0.550;-2.132479;1.728576
0.560;-2.118868;1.738685
0.570;-2.106249;1.747538
0.580;-2.094402;1.755521
0.590;-2.083008;1.762870
0.600;-2.071791;1.769496
0.610;-2.060563;1.774968
0.620;-2.049189;1.778674
0.630;-2.037536;1.780094
0.640;-2.025474;1.779055
0.650;-2.012964;1.775853
0.660;-2.000184;1.771193
0.670;-1.987608;1.766007
0.680;-1.975958;1.761202
0.690;-1.966053;1.757433
0.700;-1.958606;1.754934
0.710;-1.954048;1.753461
0.720;-1.952419;1.752340
0.730;-1.953326;1.750611
0.740;-1.955992;1.747230
0.750;-1.959398;1.741320
0.760;-1.962495;1.732416
0.770;-1.964400;1.720659
0.780;-1.964516;1.706814
0.790;-1.962555;1.692094
0.800;-1.958534;1.677792
0.810;-1.952764;1.664869
0.820;-1.945856;1.653680
0.830;-1.938658;1.643982
0.840;-1.932128;1.635206
0.850;-1.927103;1.626864
0.860;-1.924080;1.618855
0.870;-1.923078;1.611491
0.880;-1.923660;1.605256
0.890;-1.925085;1.600465
0.900;-1.926528;1.597026
0.910;-1.927289;1.594441
0.920;-1.926947;1.592032
0.930;-1.925451;1.589233
0.940;-1.923119;1.585793
0.950;-1.920572;1.581782
0.960;-1.918577;1.577458
0.970;-1.917854;1.573110
0.980;-1.918869;1.568958
0.990;-1.921714;1.565134
1.000;-1.926109;1.561738
1.010;-1.931527;1.558916
1.020;-1.937358;1.556932
1.030;-1.943077;1.556163
1.040;-1.948337;1.556975
1.050;-1.953013;1.559534
1.060;-1.957168;1.563658
1.070;-1.960967;1.568781
1.080;-1.964555;1.574075
1.090;-1.967950;1.578643
1.100;-1.970987;1.581737
1.110;-1.973359;1.582931
1.120;-1.974737;1.582231
1.130;-1.974929;1.580082
1.140;-1.974019;1.577242
1.150;-1.972414;1.574566
1.160;-1.970792;1.572779
1.170;-1.969934;1.572312
1.180;-1.970498;1.573212
1.190;-1.972815;1.575171
1.200;-1.976773;1.577665
1.210;-1.981865;1.580185
1.220;-1.987383;1.582489
1.230;-1.992693;1.584762
1.240;-1.997453;1.587584
1.250;-2.001644;1.591719
1.260;-2.005406;1.597816
1.270;-2.008784;1.606171
1.280;-2.011573;1.616627
1.290;-2.013341;1.628636
1.300;-2.013605;1.641453
1.310;-2.012032;1.654414
1.320;-2.008556;1.667192
1.330;-2.003384;1.679944
1.340;-1.996968;1.693249
1.350;-1.989964;1.707891
1.360;-1.983198;1.724558
1.370;-1.977557;1.743592
1.380;-1.973805;1.764851
1.390;-1.972330;1.787742
1.400;-1.972941;1.811395
1.410;-1.974792;1.834935
1.420;-1.976494;1.857728
1.430;-1.976411;1.879519
1.440;-1.973085;1.900374
1.450;-1.965653;1.920496
1.460;-1.954146;1.940033
1.470;-1.939512;1.958979
1.480;-1.923345;1.977217
1.490;-1.907399;1.994644
1.500;-1.893088;2.011300
1.510;-1.881145;2.027401
1.520;-1.871523;2.043273
1.530;-1.863530;2.059224
1.540;-1.856106;2.075451
1.550;-1.848164;2.091989
1.560;-1.838919;2.108709
1.570;-1.828120;2.125341
1.580;-1.816090;2.141517
1.590;-1.803549;2.156825
1.600;-1.791315;2.170876
1.610;-1.780040;2.183360
1.620;-1.770090;2.194114
1.630;-1.761607;2.203181
1.640;-1.754626;2.210815
1.650;-1.749165;2.217394
1.660;-1.745195;2.223255
1.670;-1.742544;2.228550
1.680;-1.740793;2.233213
1.690;-1.739282;2.237071
1.700;-1.737249;2.240009
1.710;-1.734082;2.242082
1.720;-1.729578;2.243512
1.730;-1.724097;2.244594
1.740;-1.718531;2.245566
1.750;-1.714084;2.246540
1.760;-1.711948;2.247493
1.770;-1.712957;2.248329
1.780;-1.717358;2.248927
1.790;-1.724750;2.249164
1.800;-1.734212;2.248908
1.810;-1.744559;2.248017
1.820;-1.754618;2.246363
1.830;-1.763438;2.243877
1.840;-1.770400;2.240583
1.850;-1.775245;2.236597
1.860;-1.778024;2.232099
1.870;-1.778974;2.227286
1.880;-1.778369;2.222317
1.890;-1.776387;2.217235
1.900;-1.773076;2.211912
1.910;-1.768403;2.206086
1.920;-1.762369;2.199488
1.930;-1.755086;2.191998
1.940;-1.746780;2.183741
1.950;-1.737736;2.175055
1.960;-1.728226;2.166378
1.970;-1.718489;2.158126
1.980;-1.708793;2.150644
1.990;-1.699518;2.144214
2.000;-1.691193;2.139077
2.010;-1.684410;2.135425
2.020;-1.679646;2.133362
2.030;-1.677047;2.132853
2.040;-1.676299;2.133683
2.050;-1.676634;2.135454
2.060;-1.676986;2.137643
2.070;-1.676244;2.139732
2.080;-1.673531;2.141361
2.090;-1.668435;2.142422
2.100;-1.661088;2.143023
2.110;-1.652070;2.143345
2.120;-1.642157;2.143472
2.130;-1.632054;2.143320
2.140;-1.622242;2.142698
2.150;-1.612968;2.141439
2.160;-1.604357;2.139534
2.170;-1.596550;2.137195
2.180;-1.589782;2.134835
2.190;-1.584370;2.132960
2.200;-1.580623;2.131996
2.210;-1.578707;2.132112
2.220;-1.578526;2.133168
2.230;-1.579661;2.134813
2.240;-1.581377;2.136708
2.250;-1.582716;2.138739
2.260;-1.582671;2.141092
2.270;-1.580411;2.144147
2.280;-1.575490;2.148245
2.290;-1.567977;2.153447
2.300;-1.558429;2.159407
2.310;-1.547722;2.165409
2.320;-1.536774;2.170590
2.330;-1.526293;2.174251
2.340;-1.516642;2.176149
2.350;-1.507868;2.176608
2.360;-1.499845;2.176374
2.370;-1.492434;2.176252
2.380;-1.485560;2.176713
2.390;-1.479160;2.177683
2.400;-1.473057;2.178608
2.410;-1.466856;2.178758
2.420;-1.459999;2.177604
2.430;-1.451974;2.175064
2.440;-1.442589;2.171508
2.450;-1.432112;2.167532
2.460;-1.421188;2.163657
2.470;-1.410530;2.160113
2.480;-1.400543;2.156783
2.490;-1.391066;2.153253
2.500;-1.381356;2.148897
2.510;-1.370320;2.142953
2.520;-1.356852;2.134628
2.530;-1.340162;2.123264
2.540;-1.319990;2.108568
2.550;-1.296666;2.090813
2.560;-1.271028;2.070889
2.570;-1.244232;2.050110
2.580;-1.217501;2.029851
2.590;-1.191918;2.011154
2.600;-1.168298;1.994487
2.610;-1.147160;1.979734
2.620;-1.128774;1.966390
2.630;-1.113242;1.953857
2.640;-1.100594;1.941735
2.650;-1.090864;1.929985
2.660;-1.084147;1.918930
2.670;-1.080626;1.909093
2.680;-1.080575;1.900959
2.690;-1.084316;1.894790
2.700;-1.092129;1.890565
2.710;-1.104130;1.888028
2.720;-1.120150;1.886744
2.730;-1.139663;1.886123
2.740;-1.161834;1.885429
2.750;-1.185653;1.883870
2.760;-1.210153;1.880810
2.770;-1.234599;1.876060
2.780;-1.258592;1.870081
2.790;-1.282041;1.863988
2.800;-1.305046;1.859265
2.810;-1.327750;1.857310
2.820;-1.350228;1.858981
2.830;-1.372464;1.864325
2.840;-1.394425;1.872571
2.850;-1.416246;1.882388
2.860;-1.438422;1.892257
2.870;-1.461901;1.900840
2.880;-1.487944;1.907218
2.890;-1.517739;1.910981
2.900;-1.551883;1.912191
2.910;-1.589923;1.911288
2.920;-1.630146;1.908963
2.930;-1.669728;1.906016
2.940;-1.705258;1.903213
2.950;-1.733528;1.901137
2.960;-1.752381;1.900088
2.970;-1.761340;1.900040
2.980;-1.761787;1.900684
2.990;-1.756594;1.901518
3.000;-1.749329;1.901958
3.010;-1.743310;1.901478
3.020;-1.740853;1.899754
3.030;-1.742912;1.896769
3.040;-1.749129;1.892784
3.050;-1.758205;1.888179
3.060;-1.768472;1.883235
3.070;-1.778478;1.877964
3.080;-1.787428;1.872088
3.090;-1.795347;1.865182
3.100;-1.802936;1.856933
3.110;-1.811193;1.847357
3.120;-1.820960;1.836857
3.130;-1.832539;1.826109
3.140;-1.845462;1.815860
3.150;-1.858484;1.806798
3.160;-1.869777;1.799514
3.170;-1.877292;1.794516
3.180;-1.879243;1.792215
3.190;-1.874582;1.792855
3.200;-1.863328;1.796435
3.210;-1.846621;1.802682
3.220;-1.826436;1.811106
3.230;-1.805038;1.821102
3.240;-1.784348;1.832071
3.250;-1.765393;1.843517
3.260;-1.748027;1.855085
3.270;-1.730995;1.866539
3.280;-1.712333;1.877717
3.290;-1.689971;1.888509
3.300;-1.662381;1.898898
3.310;-1.629073;1.909009
3.320;-1.590815;1.919103
3.330;-1.549476;1.929482
3.340;-1.507536;1.940331
3.350;-1.467438;1.951546
3.360;-1.431026;1.962655
3.370;-1.399290;1.972899
3.380;-1.372454;1.981494
3.390;-1.350274;1.987943
3.400;-1.332358;1.992258
3.410;-1.318360;1.994973
3.420;-1.308025;1.996944
3.430;-1.301147;1.999058
3.440;-1.297499;2.001943
3.450;-1.296757;2.005784
3.460;-1.298449;2.010287
3.470;-1.301936;2.014798
3.480;-1.306463;2.018558
3.490;-1.311265;2.020997
3.500;-1.315698;2.021963
3.510;-1.319347;2.021791
3.520;-1.322099;2.021194
3.530;-1.324180;2.021020
3.540;-1.326150;2.021952
3.550;-1.328840;2.024264
3.560;-1.333205;2.027713
3.570;-1.340130;2.031612
3.580;-1.350217;2.035063
3.590;-1.363636;2.037245
3.600;-1.380097;2.037649
3.610;-1.398983;2.036205
3.620;-1.419582;2.033259
3.630;-1.441326;2.029413
3.640;-1.463912;2.025301
3.650;-1.487286;2.021363
3.660;-1.511507;2.017723
3.670;-1.536579;2.014200
3.680;-1.562337;2.010450
3.690;-1.588439;2.006155
3.700;-1.614478;2.001189
3.710;-1.640163;1.995654
3.720;-1.665458;1.989790
3.730;-1.690583;1.983812
3.740;-1.715856;1.977794
3.750;-1.741446;1.971702
3.760;-1.767158;1.965534
3.770;-1.792357;1.959494
3.780;-1.816067;1.954028
3.790;-1.837215;1.949719
3.800;-1.854929;1.947101
3.810;-1.868767;1.946498
3.820;-1.878778;1.947963
3.830;-1.885381;1.951341
3.840;-1.889142;1.956367
3.850;-1.890551;1.962758
3.860;-1.889921;1.970242
3.870;-1.887413;1.978540
3.880;-1.883128;1.987357
3.890;-1.877167;1.996428
3.900;-1.869662;2.005595
3.910;-1.860778;2.014835
3.920;-1.850719;2.024181
3.930;-1.839761;2.033554
3.940;-1.828269;2.042637
3.950;-1.816705;2.050881
3.960;-1.805616;2.057670
3.970;-1.795599;2.062549
3.980;-1.787228;2.065404
3.990;-1.780936;2.066491
4.000;-1.776861;2.066330
4.010;-1.774724;2.065489
4.020;-1.773818;2.064384
4.030;-1.773159;2.063166
4.040;-1.771740;2.061713
4.050;-1.768788;2.059745
4.060;-1.763943;2.057001
4.070;-1.757286;2.053420
4.080;-1.749266;2.049230
4.090;-1.740529;2.044873
4.100;-1.731723;2.040814
4.110;-1.723330;2.037331
4.120;-1.715570;2.034391
4.130;-1.708413;2.031668
4.140;-1.701706;2.028644
4.150;-1.695350;2.024764
4.160;-1.689491;2.019582
4.170;-1.684576;2.012872
4.180;-1.681266;2.004634
4.190;-1.680200;1.994999
4.200;-1.681747;1.984064
4.210;-1.685819;1.971770
4.220;-1.691852;1.957927
4.230;-1.698928;1.942356
4.240;-1.706015;1.925044
4.250;-1.712248;1.906185
4.260;-1.717160;1.886099
4.270;-1.720783;1.865127
4.280;-1.723553;1.843602
4.290;-1.726057;1.821910
4.300;-1.728697;1.800553
4.310;-1.731411;1.780125
4.320;-1.733580;1.761173
4.330;-1.734194;1.744054
4.340;-1.732227;1.728867
4.350;-1.727055;1.715514
4.360;-1.718711;1.703828
4.370;-1.707871;1.693667
4.380;-1.695600;1.684919
4.390;-1.683022;1.677462
4.400;-1.671062;1.671147
4.410;-1.660304;1.665833
4.420;-1.650966;1.661431
4.430;-1.642940;1.657871
4.440;-1.635896;1.655012
4.450;-1.629405;1.652574
4.460;-1.623066;1.650182
4.470;-1.616595;1.647536
4.480;-1.609846;1.644597
4.490;-1.602740;1.641662
4.500;-1.595166;1.639263
4.510;-1.586909;1.637954
4.520;-1.577679;1.638118
4.530;-1.567223;1.639898
4.540;-1.555434;1.643271
4.550;-1.542413;1.648200
4.560;-1.528472;1.654753
4.570;-1.514106;1.663112
4.580;-1.499949;1.673470
4.590;-1.486709;1.685883
4.600;-1.475051;1.700169
4.610;-1.465467;1.715927
4.620;-1.458156;1.732665
4.630;-1.452995;1.749997
4.640;-1.449588;1.767760
4.650;-1.447404;1.785995
4.660;-1.445950;1.804775
4.670;-1.444912;1.823992
4.680;-1.444217;1.843249
4.690;-1.443963;1.861917
4.700;-1.444282;1.879349
4.710;-1.445200;1.895142
4.720;-1.446587;1.909318
4.730;-1.448209;1.922334
4.740;-1.449845;1.934934
4.750;-1.451404;1.947869
4.760;-1.452991;1.961593
4.770;-1.454875;1.976063
4.780;-1.457377;1.990736
4.790;-1.460729;2.004799
4.800;-1.465000;2.017516
4.810;-1.470091;2.028515
4.820;-1.475809;2.037890
4.830;-1.481955;2.046100
4.840;-1.488386;2.053736
4.850;-1.495043;2.061287
4.860;-1.501960;2.069040
4.870;-1.509275;2.077143
4.880;-1.517214;2.085783
4.890;-1.526022;2.095298
4.900;-1.535855;2.106126
4.910;-1.546668;2.118613
4.920;-1.558173;2.132803
4.930;-1.569895;2.148345
4.940;-1.581318;2.164553
4.950;-1.592055;2.180588
4.960;-1.601982;2.195695
4.970;-1.611274;2.209381
4.980;-1.620313;2.221469
4.990;-1.629542;2.232045
5.000;-1.639271;2.241341
5.010;-1.649523;2.249635
5.020;-1.659941;2.257192
5.030;-1.669824;2.264262
5.040;-1.678290;2.271121
5.050;-1.684529;2.278124
5.060;-1.688061;2.285704
5.070;-1.688879;2.294308
5.080;-1.687424;2.304256
5.090;-1.684412;2.315582
5.100;-1.680628;2.327953
5.110;-1.676763;2.340690
5.120;-1.673344;2.352935
5.130;-1.670726;2.363884
5.140;-1.669109;2.373022
5.150;-1.668565;2.380258
5.160;-1.669024;2.385885
5.170;-1.670250;2.390397
5.180;-1.671843;2.394250
5.190;-1.673346;2.397689
5.200;-1.674423;2.400729
5.210;-1.675039;2.403272
5.220;-1.675546;2.405288
5.230;-1.676611;2.406904
5.240;-1.679029;2.408364
5.250;-1.683456;2.409856
5.260;-1.690164;2.411342
5.270;-1.698877;2.412472
5.280;-1.708780;2.412656
5.290;-1.718705;2.411269
5.300;-1.727480;2.407935
5.310;-1.734333;2.402746
5.320;-1.739156;2.396306
5.330;-1.742514;2.389576
5.340;-1.745377;2.383585
5.350;-1.748698;2.379144
5.360;-1.753021;2.376650
5.370;-1.758296;2.376028
5.380;-1.763957;2.376804
5.390;-1.769229;2.378299
5.400;-1.773503;2.379879
5.410;-1.776586;2.381197
5.420;-1.778735;2.382313
5.430;-1.780492;2.383660
5.440;-1.782448;2.385840
5.450;-1.785070;2.389352
5.460;-1.788627;2.394360
5.470;-1.793213;2.400583
5.480;-1.798797;2.407364
5.490;-1.805295;2.413886
5.500;-1.812620;2.419458
5.510;-1.820687;2.423745
5.520;-1.829397;2.426829
5.530;-1.838605;2.429109
5.540;-1.848145;2.431120
5.550;-1.857908;2.433355
5.560;-1.867934;2.436148
5.570;-1.878443;2.439616
5.580;-1.889761;2.443654
5.590;-1.902182;2.447987
5.600;-1.915832;2.452265
5.610;-1.930611;2.456189
5.620;-1.946211;2.459605
5.630;-1.962178;2.462523
5.640;-1.978002;2.465073
5.650;-1.993177;2.467415
5.660;-2.007255;2.469670
5.670;-2.019851;2.471861
5.680;-2.030622;2.473900
5.690;-2.039225;2.475607
5.700;-2.045323;2.476778
5.710;-2.048670;2.477252
5.720;-2.049271;2.476966
5.730;-2.047547;2.475980
5.740;-2.044400;2.474493
5.750;-2.041095;2.472826
5.760;-2.038963;2.471354
5.770;-2.039006;2.470377
5.780;-2.041565;2.469987
5.790;-2.046195;2.469987
5.800;-2.051780;2.469925
5.810;-2.056877;2.469270
5.820;-2.060138;2.467647
5.830;-2.060689;2.465017
5.840;-2.058303;2.461668
5.850;-2.053336;2.458035
5.860;-2.046490;2.454444
5.870;-2.038538;2.450940
5.880;-2.030131;2.447291
5.890;-2.021757;2.443150
5.900;-2.013774;2.438261
5.910;-2.006472;2.432598
5.920;-2.000087;2.426341
5.930;-1.994792;2.419749
5.940;-1.990682;2.413029
5.950;-1.987760;2.406266
5.960;-1.985888;2.399423
5.970;-1.984722;2.392403
5.980;-1.983677;2.385106
5.990;-1.981996;2.377484
6.000;-1.978932;2.369567
6.010;-1.973963;2.361480
6.020;-1.966969;2.353444
6.030;-1.958286;2.345752
6.040;-1.948635;2.338722
6.050;-1.938943;2.332606
6.060;-1.930114;2.327483
6.070;-1.922830;2.323176
6.080;-1.917451;2.319253
6.090;-1.914007;2.315131
6.100;-1.912269;2.310244
6.110;-1.911835;2.304208
6.120;-1.912234;2.296946
6.130;-1.913041;2.288695
6.140;-1.913999;2.279906
6.150;-1.915072;2.271039
6.160;-1.916390;2.262367
6.170;-1.918081;2.253883
6.180;-1.920091;2.245383
6.190;-1.922104;2.236670
6.200;-1.923631;2.227773
6.210;-1.924216;2.219034
6.220;-1.923675;2.211003
6.230;-1.922194;2.204216
6.240;-1.920273;2.198964
6.250;-1.918492;2.195175
6.260;-1.917259;2.192460
6.270;-1.916630;2.190281
6.280;-1.916300;2.188160
6.290;-1.915737;2.185833
6.300;-1.914391;2.183301
6.310;-1.911890;2.180751
6.320;-1.908180;2.178396
6.330;-1.903593;2.176328
6.340;-1.898837;2.174465
6.350;-1.894870;2.172619
6.360;-1.892668;2.170634
6.370;-1.892942;2.168501
6.380;-1.895923;2.166402
6.390;-1.901309;2.164632
6.400;-1.908391;2.163460
6.410;-1.916297;2.162984
6.420;-1.924248;2.163105
6.430;-1.931711;2.163621
6.440;-1.938413;2.164390
6.450;-1.944236;2.165464
6.460;-1.949072;2.167133
6.470;-1.952714;2.169849
6.480;-1.954843;2.174066
6.490;-1.955135;2.180054
6.500;-1.953426;2.187769
6.510;-1.949878;2.196861
6.520;-1.945027;2.206804
6.530;-1.939705;2.217074
6.540;-1.934838;2.227256
6.550;-1.931240;2.237045
6.560;-1.929464;2.246188
6.570;-1.929765;2.254440
6.580;-1.932110;2.261568
6.590;-1.936246;2.267406
6.600;-1.941769;2.271926
6.610;-1.948247;2.275295
6.620;-1.955339;2.277886
6.630;-1.962896;2.280240
6.640;-1.970958;2.282966
6.650;-1.979638;2.286610
6.660;-1.988935;2.291525
6.670;-1.998562;2.297782
6.680;-2.007876;2.305177
6.690;-2.015952;2.313330
6.700;-2.021790;2.321840
6.710;-2.024597;2.330448
6.720;-2.024063;2.339121
6.730;-2.020515;2.348006
6.740;-2.014880;2.357265
6.750;-2.008451;2.366893
6.760;-2.002508;2.376636
6.770;-1.997951;2.386061
6.780;-1.995062;2.394733
6.790;-1.993495;2.402423
6.800;-1.992480;2.409221
6.810;-1.991133;2.415527
6.820;-1.988736;2.421871
6.830;-1.984884;2.428655
6.840;-1.979489;2.435924
6.850;-1.972697;2.443298
6.860;-1.964799;2.450107
6.870;-1.956167;2.455646
6.880;-1.947193;2.459421
6.890;-1.938189;2.461290
6.900;-1.929281;2.461449
6.910;-1.920368;2.460327
6.920;-1.911181;2.458440
6.930;-1.901431;2.456263
6.940;-1.890968;2.454117
6.950;-1.879887;2.452091
6.960;-1.868536;2.450045
6.970;-1.857430;2.447690
6.980;-1.847084;2.444716
6.990;-1.837866;2.440918
7.000;-1.829896;2.436250
7.010;-1.823033;2.430787
7.020;-1.816951;2.424622
7.030;-1.811275;2.417775
7.040;-1.805713;2.410181
7.050;-1.800112;2.401734
7.060;-1.794409;2.392359
7.070;-1.788534;2.382065
7.080;-1.782352;2.370997
7.090;-1.775683;2.359463
7.100;-1.768389;2.347928
7.110;-1.760492;2.336915
7.120;-1.752273;2.326867
7.130;-1.744325;2.318024
7.140;-1.737473;2.310391
7.150;-1.732587;2.303772
7.160;-1.730314;2.297817
7.170;-1.730868;2.292058
7.180;-1.733955;2.285971
7.190;-1.738847;2.279068
7.200;-1.744584;2.271010
7.210;-1.750207;2.261705
7.220;-1.754958;2.251381
7.230;-1.758392;2.240609
7.240;-1.760398;2.230245
7.250;-1.761168;2.221246
7.260;-1.761128;2.214434
7.270;-1.760850;2.210278
7.280;-1.760961;2.208811
7.290;-1.762022;2.209695
7.300;-1.764407;2.212365
7.310;-1.768182;2.216193
7.320;-1.773049;2.220600
7.330;-1.778412;2.225124
7.340;-1.783541;2.229420
7.350;-1.787789;2.233218
7.360;-1.790754;2.236278
7.370;-1.792326;2.238366
7.380;-1.792629;2.239288
7.390;-1.791905;2.238960
7.400;-1.790409;2.237510
7.410;-1.788355;2.235319
7.420;-1.785907;2.232987
7.430;-1.783192;2.231198
7.440;-1.780323;2.230533
7.450;-1.777399;2.231269
7.460;-1.774460;2.233276
7.470;-1.771416;2.236056
7.480;-1.767990;2.238951
7.490;-1.763766;2.241422
7.500;-1.758342;2.243264
7.510;-1.751528;2.244637
7.520;-1.743495;2.245920
7.530;-1.734795;2.247479
7.540;-1.726265;2.249495
7.550;-1.718834;2.251901
7.560;-1.713301;2.254405
7.570;-1.710160;2.256551
7.580;-1.709514;2.257817
7.590;-1.711122;2.257775
7.600;-1.714539;2.256287
7.610;-1.719276;2.253639
7.620;-1.724922;2.250523
7.630;-1.731147;2.247851
7.640;-1.737627;2.246500
7.650;-1.743941;2.247098
7.660;-1.749558;2.249900
7.670;-1.753938;2.254755
7.680;-1.756712;2.261144
7.690;-1.757844;2.268287
7.700;-1.757690;2.275332
7.710;-1.756904;2.281589
7.720;-1.756214;2.286738
7.730;-1.756178;2.290900
7.740;-1.756986;2.294526
7.750;-1.758397;2.298194
7.760;-1.759817;2.302400
7.770;-1.760469;2.307446
7.780;-1.759641;2.313419
7.790;-1.756920;2.320229
7.800;-1.752354;2.327659
7.810;-1.746454;2.335391
7.820;-1.740032;2.343031
7.830;-1.733947;2.350157
7.840;-1.728855;2.356411
7.850;-1.725073;2.361614
7.860;-1.722554;2.365823
7.870;-1.720937;2.369326
7.880;-1.719633;2.372549
7.890;-1.717939;2.375936
7.900;-1.715144;2.379840
7.910;-1.710639;2.384431
7.920;-1.703987;2.389649
7.930;-1.694968;2.395209
7.940;-1.683640;2.400658
7.950;-1.670378;2.405483
7.960;-1.655874;2.409208
7.970;-1.641032;2.411493
7.980;-1.626762;2.412227
