Time[s];COPx[cm];COPy[cm]
0.010;-0.676780;-1.577839
0.020;-0.654065;-1.559470
0.030;-0.632626;-1.539870
0.040;-0.613463;-1.518266
0.050;-0.596892;-1.494393
0.060;-0.582324;-1.468544
0.070;-0.568180;-1.441482
0.080;-0.552044;-1.414261
0.090;-0.531093;-1.388009
0.100;-0.502714;-1.363688
0.110;-0.465094;-1.341878
0.120;-0.417523;-1.322624
0.130;-0.360285;-1.305423
0.140;-0.294186;-1.289369
0.150;-0.219980;-1.273460
0.160;-0.137972;-1.256983
0.170;-0.048005;-1.239863
0.180;0.050195;-1.222796
0.190;0.156501;-1.207102
0.200;0.269966;-1.194302
0.210;0.388727;-1.185593
0.220;0.510293;-1.181415
0.230;0.632059;-1.181288
0.240;0.751817;-1.183910
0.250;0.868045;-1.187451
0.260;0.979874;-1.189903
0.270;1.086801;-1.189407
0.280;1.188310;-1.184505
0.290;1.283605;-1.174324
0.300;1.371553;-1.158669
0.310;1.450771;-1.138035
0.320;1.519740;-1.113538
0.330;1.576877;-1.086751
0.340;1.620590;-1.059501
0.350;1.649410;-1.033627
0.360;1.662229;-1.010737
0.370;1.658574;-0.991956
0.380;1.638792;-0.977687
0.390;1.604004;-0.967425
0.400;1.555821;-0.959705
0.410;1.495918;-0.952263
0.420;1.425646;-0.942434
0.430;1.345871;-0.927694
0.440;1.257117;-0.906177
0.450;1.159994;-0.877040
0.460;1.055772;-0.840615
0.470;0.946879;-0.798388
0.480;0.837145;-0.752775
0.490;0.731619;-0.706726
0.500;0.635921;-0.663142
0.510;0.555245;-0.624220
0.520;0.493317;-0.590942
0.530;0.451700;-0.562907
0.540;0.429713;-0.538591
0.550;0.424978;-0.515897
0.560;0.434332;-0.492724
0.570;0.454716;-0.467368
0.580;0.483723;-0.438678
0.590;0.519703;-0.406063
0.600;0.561519;-0.369425
0.610;0.608164;-0.329114
0.620;0.658431;-0.285888
0.630;0.710761;-0.240865
0.640;0.763279;-0.195431
0.650;0.813958;-0.151070
0.660;0.860842;-0.109129
0.670;0.902242;-0.070560
0.680;0.936879;-0.035728
0.690;0.963958;-0.004359
0.700;0.983159;0.024298
0.710;0.994557;0.051147
0.720;0.998477;0.076870
0.730;0.995331;0.101650
0.740;0.985500;0.125112
0.750;0.969289;0.146496
0.760;0.946934;0.165016
0.770;0.918611;0.180269
0.780;0.884423;0.192533
0.790;0.844306;0.202769
0.800;0.797928;0.212348
0.810;0.744709;0.222626
0.820;0.684026;0.234595
0.830;0.615586;0.248762
0.840;0.539801;0.265240
0.850;0.458005;0.283978
0.860;0.372439;0.305006
0.870;0.286004;0.328577
0.880;0.201879;0.355126
0.890;0.123103;0.385020
0.900;0.052220;0.418268
0.910;-0.008917;0.454377
0.920;-0.059167;0.492505
0.930;-0.098006;0.531830
0.940;-0.125370;0.571952
0.950;-0.141514;0.613086
0.960;-0.146880;0.655976
0.970;-0.142014;0.701542
0.980;-0.127576;0.750421
0.990;-0.104463;0.802593
1.000;-0.073987;0.857295
1.010;-0.037981;0.913297
1.020;0.001318;0.969425
1.030;0.041616;1.025089
1.040;0.080999;1.080551
1.050;0.118284;1.136804
1.060;0.153162;1.195140
1.070;0.186142;1.256592
1.080;0.218387;1.321511
1.090;0.251522;1.389431
1.100;0.287409;1.459289
1.110;0.327875;1.529873
1.120;0.374390;1.600291
1.130;0.427761;1.670270
1.140;0.487939;1.740169
1.150;0.554010;1.810746
1.160;0.624401;1.882782
1.170;0.697241;1.956748
1.180;0.770766;2.032659
1.190;0.843612;2.110172
1.200;0.914916;2.188851
1.210;0.984217;2.268395
1.220;1.051242;2.348685
1.230;1.115668;2.429597
1.240;1.176949;2.510735
1.250;1.234280;2.591262
1.260;1.286722;2.669941
1.270;1.333450;2.745389
1.280;1.374031;2.816381
1.290;1.408599;2.882066
1.300;1.437834;2.941999
1.310;1.462726;2.996013
1.320;1.484196;3.044086
1.330;1.502765;3.086287
1.340;1.518401;3.122821
1.350;1.530639;3.154035
1.360;1.538904;3.180367
1.370;1.542871;3.202263
1.380;1.542737;3.220162
1.390;1.539304;3.234526
1.400;1.533870;3.245843
1.410;1.527961;3.254576
1.420;1.522972;3.261111
1.430;1.519824;3.265837
1.440;1.518766;3.269350
1.450;1.519414;3.272670
1.460;1.521001;3.277306
1.470;1.522735;3.285027
1.480;1.524121;3.297358
1.490;1.525099;3.315000
1.500;1.525968;3.337458
1.510;1.527157;3.363087
1.520;1.528956;3.389552
1.530;1.531354;3.414508
1.540;1.534050;3.436224
1.550;1.536615;3.453918
1.560;1.538730;3.467709
1.570;1.540378;3.478285
1.580;1.541913;3.486488
1.590;1.544027;3.493022
1.600;1.547637;3.498391
1.610;1.553724;3.503032
1.620;1.563158;3.507498
1.630;1.576501;3.512541
1.640;1.593804;3.519027
1.650;1.614412;3.527692
1.660;1.636881;3.538870
1.670;1.659083;3.552284
1.680;1.678531;3.566987
1.690;1.692832;3.581537
1.700;1.700152;3.594351
1.710;1.699572;3.604113
1.720;1.691219;3.610065
1.730;1.676122;3.612072
1.740;1.655845;3.610453
1.750;1.632021;3.605647
1.760;1.605943;3.597834
1.770;1.578340;3.586674
1.780;1.549399;3.571322
1.790;1.518985;3.550720
1.800;1.486928;3.524030
1.810;1.453248;3.490968
1.820;1.418190;3.451914
1.830;1.382114;3.407794
1.840;1.345277;3.359855
1.850;1.307644;3.309478
1.860;1.268829;3.258059
1.870;1.228226;3.206918
1.880;1.185323;3.157176
1.890;1.140021;3.109602
1.900;1.092847;3.064522
1.910;1.044960;3.021856
1.920;0.997995;2.981332
1.930;0.953816;2.942754
1.940;0.914247;2.906220
1.950;0.880820;2.872174
1.960;0.854570;2.841251
1.970;0.835917;2.814003
1.980;0.824646;2.790609
1.990;0.819990;2.770711
2.000;0.820840;2.753412
2.010;0.826038;2.737402
2.020;0.834704;2.721114
2.030;0.846462;2.702835
2.040;0.861477;2.680792
2.050;0.880247;2.653279
2.060;0.903221;2.618868
2.070;0.930349;2.576664
2.080;0.960718;2.526475
2.090;0.992379;2.468839
2.100;1.022441;2.404867
2.110;1.047434;2.335999
2.120;1.063883;2.263738
2.130;1.068910;2.189443
2.140;1.060714;2.114183
2.150;1.038753;2.038641
2.160;1.003571;1.963070
2.170;0.956315;1.887338
2.180;0.898115;1.811119
2.190;0.829581;1.734181
2.200;0.750623;1.656645
2.210;0.660700;1.579069
2.220;0.559386;1.502285
2.230;0.447056;1.427081
2.240;0.325399;1.353917
2.250;0.197553;1.282773
2.260;0.067783;1.213224
2.270;-0.059208;1.144646
2.280;-0.179063;1.076491
2.290;-0.288388;1.008502
2.300;-0.385029;0.940810
2.310;-0.468038;0.873935
2.320;-0.537482;0.808719
2.330;-0.594236;0.746211
2.340;-0.639829;0.687501
2.350;-0.676337;0.633474
2.360;-0.706242;0.584560
2.370;-0.732181;0.540531
2.380;-0.756591;0.500435
2.390;-0.781344;0.462697
2.400;-0.807504;0.425420
2.410;-0.835296;0.386846
2.420;-0.864263;0.345854
2.430;-0.893538;0.302279
2.440;-0.922102;0.256899
2.450;-0.948963;0.211087
2.460;-0.973286;0.166366
2.470;-0.994493;0.124131
2.480;-1.012352;0.085625
2.490;-1.026947;0.052042
2.500;-1.038444;0.024486
2.510;-1.046641;0.003659
2.520;-1.050469;-0.010697
2.530;-1.047669;-0.020339
2.540;-1.034874;-0.028737
2.550;-1.008115;-0.040721
2.560;-0.963670;-0.061549
2.570;-0.899031;-0.095717
2.580;-0.813683;-0.145891
2.590;-0.709474;-0.212369
2.600;-0.590403;-0.293197
2.610;-0.461890;-0.384847
2.620;-0.329735;-0.483169
2.630;-0.199099;-0.584276
2.640;-0.073828;-0.685164
2.650;0.043726;-0.783976
2.660;0.152428;-0.879921
2.670;0.251810;-0.972928
2.680;0.341526;-1.063170
2.690;0.420994;-1.150664
2.700;0.489287;-1.235073
2.710;0.545227;-1.315743
2.720;0.587570;-1.391833
2.730;0.615169;-1.462416
2.740;0.627046;-1.526492
2.750;0.622414;-1.582995
2.760;0.600732;-1.630937
2.770;0.561901;-1.669691
2.780;0.506521;-1.699282
2.790;0.436072;-1.720506
2.800;0.352834;-1.734760
2.810;0.259515;-1.743678
2.820;0.158756;-1.748687
2.830;0.052779;-1.750642
2.840;-0.056693;-1.749600
2.850;-0.168253;-1.744791
2.860;-0.280589;-1.734808
2.870;-0.392355;-1.718015
2.880;-0.502227;-1.693058
2.890;-0.609033;-1.659321
2.900;-0.711814;-1.617160
2.910;-0.809713;-1.567835
2.920;-0.901795;-1.513195
2.930;-0.986954;-1.455241
2.940;-1.064049;-1.395678
2.950;-1.132226;-1.335571
2.960;-1.191268;-1.275206
2.970;-1.241784;-1.214232
2.980;-1.285155;-1.152046
2.990;-1.323261;-1.088246
3.000;-1.358049;-1.022943
3.010;-1.391093;-0.956778
3.020;-1.423253;-0.890681
3.030;-1.454588;-0.825539
3.040;-1.484544;-0.761966
3.050;-1.512315;-0.700295
3.060;-1.537199;-0.640731
3.070;-1.558794;-0.583500
3.080;-1.576954;-0.528904
3.090;-1.591617;-0.477282
3.100;-1.602629;-0.428980
3.110;-1.609687;-0.384366
3.120;-1.612436;-0.343832
3.130;-1.610616;-0.307724
3.140;-1.604127;-0.276211
3.150;-1.592907;-0.249187
3.160;-1.576643;-0.226256
3.170;-1.554449;-0.206822
3.180;-1.524741;-0.190264
3.190;-1.485455;-0.176115
3.200;-1.434615;-0.164210
3.210;-1.371056;-0.154693
3.220;-1.295019;-0.147858
3.230;-1.208382;-0.143882
3.240;-1.114443;-0.142530
3.250;-1.017366;-0.142975
3.260;-0.921459;-0.143805
3.270;-0.830450;-0.143245
3.280;-0.746849;-0.139508
3.290;-0.671522;-0.131181
3.300;-0.603573;-0.117546
3.310;-0.540666;-0.098786
3.320;-0.479748;-0.075986
3.330;-0.417998;-0.050904
3.340;-0.353694;-0.025506
3.350;-0.286700;-0.001426
3.360;-0.218451;0.020462
3.370;-0.151450;0.040166
3.380;-0.088497;0.058362
3.390;-0.031914;0.075935
3.400;0.016961;0.093475
3.410;0.057902;0.110923
3.420;0.091580;0.127496
3.430;0.119119;0.141873
3.440;0.141590;0.152592
3.450;0.159581;0.158522
3.460;0.172950;0.159275
3.470;0.180799;0.155431
3.480;0.181689;0.148474
3.490;0.174054;0.140461
3.500;0.156725;0.133507
3.510;0.129451;0.129242
3.520;0.093298;0.128419
3.530;0.050767;0.130823
3.540;0.005528;0.135514
3.550;-0.038224;0.141337
3.560;-0.076651;0.147475
3.570;-0.107130;0.153837
3.580;-0.128802;0.161125
3.590;-0.142619;0.170609
3.600;-0.150885;0.183741
3.610;-0.156498;0.201744
3.620;-0.162171;0.225283
3.630;-0.169898;0.254299
3.640;-0.180767;0.288007
3.650;-0.195075;0.325086
3.660;-0.212606;0.363950
3.670;-0.232917;0.403031
3.680;-0.255522;0.440982
3.690;-0.279979;0.476774
3.700;-0.305931;0.509744
3.710;-0.333151;0.539635
3.720;-0.361596;0.566630
3.730;-0.391405;0.591309
3.740;-0.422809;0.614451
3.750;-0.455990;0.636743
3.760;-0.490929;0.658531
3.770;-0.527302;0.679731
3.780;-0.564428;0.699921
3.790;-0.601295;0.718520
3.800;-0.636699;0.734965
3.810;-0.669495;0.748816
3.820;-0.698890;0.759763
3.830;-0.724665;0.767558
3.840;-0.747183;0.771919
3.850;-0.767167;0.772515
3.860;-0.785343;0.769072
3.870;-0.802131;0.761577
3.880;-0.817521;0.750438
3.890;-0.831176;0.736478
3.900;-0.842689;0.720759
3.910;-0.851827;0.704327
3.920;-0.858657;0.688035
3.930;-0.863509;0.672480
3.940;-0.866857;0.658072
3.950;-0.869172;0.645145
3.960;-0.870793;0.634034
3.970;-0.871775;0.625048
3.980;-0.871739;0.618353
3.990;-0.869738;0.613844
4.000;-0.864197;0.611070
4.010;-0.853008;0.609265
4.020;-0.833830;0.607533
4.030;-0.804550;0.605139
4.040;-0.763829;0.601806
4.050;-0.711538;0.597889
4.060;-0.648936;0.594326
4.070;-0.578448;0.592371
4.080;-0.503094;0.593220
4.090;-0.425755;0.597627
4.100;-0.348511;0.605644
4.110;-0.272278;0.616534
4.120;-0.196839;0.628888
4.130;-0.121201;0.640926
4.140;-0.044138;0.650872
4.150;0.035257;0.657305
4.160;0.117191;0.659382
4.170;0.201070;0.656911
4.180;0.285673;0.650304
4.190;0.369460;0.640465
4.200;0.450866;0.628640
4.210;0.528471;0.616248
4.220;0.601089;0.604670
4.230;0.667817;0.595041
4.240;0.728081;0.588073
4.250;0.781680;0.583976
4.260;0.828764;0.582500
4.270;0.869749;0.583104
4.280;0.905128;0.585204
4.290;0.935206;0.588462
4.300;0.959825;0.593008
4.310;0.978185;0.599497
4.320;0.988918;0.608944
4.330;0.990414;0.622358
4.340;0.981298;0.640328
4.350;0.960872;0.662721
4.360;0.929366;0.688649
4.370;0.887941;0.716715
4.380;0.838534;0.745439
4.390;0.783622;0.773683
4.400;0.726021;0.800917
4.410;0.668746;0.827237
4.420;0.614933;0.853136
4.430;0.567726;0.879124
4.440;0.530097;0.905357
4.450;0.504598;0.931409
4.460;0.493094;0.956303
4.470;0.496548;0.978776
4.480;0.514889;0.997676
4.490;0.546981;1.012312
4.500;0.590702;1.022644
4.510;0.643086;1.029272
4.520;0.700552;1.033265
4.530;0.759193;1.035845
4.540;0.815108;1.038000
4.550;0.864731;1.040166
4.560;0.905083;1.042122
4.570;0.933923;1.043175
4.580;0.949791;1.042530
4.590;0.951999;1.039674
4.600;0.940592;1.034572
4.610;0.916279;1.027600
4.620;0.880301;1.019293
4.630;0.834296;1.010030
4.640;0.780147;0.999832
4.650;0.719847;0.988344
4.660;0.655329;0.974982
4.670;0.588266;0.959180
4.680;0.519879;0.940607
4.690;0.450801;0.919263
4.700;0.381074;0.895375
4.710;0.310335;0.869137
4.720;0.238170;0.840398
4.730;0.164559;0.808446
4.740;0.090224;0.772031
4.750;0.016766;0.729630
4.760;-0.053465;0.679913
4.770;-0.117741;0.622235
4.780;-0.173467;0.556974
4.790;-0.218707;0.485570
4.800;-0.252593;0.410238
4.810;-0.275513;0.333514
4.820;-0.289049;0.257763
4.830;-0.295721;0.184833
4.840;-0.298619;0.115893
4.850;-0.301008;0.051464
4.860;-0.305924;-0.008455
4.870;-0.315799;-0.064263
4.880;-0.332143;-0.116655
4.890;-0.355368;-0.166500
4.900;-0.384827;-0.214636
4.910;-0.419050;-0.261603
4.920;-0.456099;-0.307434
4.930;-0.493933;-0.351625
4.940;-0.530682;-0.393330
4.950;-0.564811;-0.431661
4.960;-0.595180;-0.465965
4.970;-0.621017;-0.495992
4.980;-0.641790;-0.521948
4.990;-0.657021;-0.544512
5.000;-0.666075;-0.564822
5.010;-0.668060;-0.584392
5.020;-0.661882;-0.604933
5.030;-0.646467;-0.628060
5.040;-0.621048;-0.654947
5.050;-0.585383;-0.686021
5.060;-0.539823;-0.720835
5.070;-0.485190;-0.758200
5.080;-0.422535;-0.796516
5.090;-0.352887;-0.834130
5.100;-0.277124;-0.869554
5.110;-0.196021;-0.901532
5.120;-0.110444;-0.929024
5.130;-0.021552;-0.951191
5.140;0.069084;-0.967430
5.150;0.159534;-0.977455
5.160;0.247697;-0.981390
5.170;0.331581;-0.979795
5.180;0.409569;-0.973541
5.190;0.480559;-0.963551
5.200;0.543922;-0.950515
5.210;0.599280;-0.934758
5.220;0.646227;-0.916309
5.230;0.684140;-0.895140
5.240;0.712189;-0.871452
5.250;0.729556;-0.845870
5.260;0.735812;-0.819484
5.270;0.731283;-0.793705
5.280;0.717298;-0.770001
5.290;0.696241;-0.749564
5.300;0.671398;-0.732987
5.310;0.646645;-0.720040
5.320;0.626034;-0.709633
5.330;0.613356;-0.700001
5.340;0.611757;-0.689083
5.350;0.623429;-0.674982
5.360;0.649420;-0.656360
5.370;0.689586;-0.632617
5.380;0.742724;-0.603835
5.390;0.806850;-0.570561
5.400;0.879554;-0.533555
5.410;0.958348;-0.493589
5.420;1.040946;-0.451320
5.430;1.125427;-0.407206
5.440;1.210227;-0.361460
5.450;1.293978;-0.314082
5.460;1.375294;-0.265023
5.470;1.452615;-0.214428
5.480;1.524215;-0.162847
5.490;1.588348;-0.111295
5.500;1.643474;-0.061086
5.510;1.688451;-0.013524
5.520;1.722642;0.030453
5.530;1.745904;0.070504
5.540;1.758520;0.106868
5.550;1.761122;0.140069
5.560;1.754685;0.170446
5.570;1.740593;0.197724
5.580;1.720679;0.220822
5.590;1.697169;0.238035
5.600;1.672477;0.247524
5.610;1.648918;0.247912
5.620;1.628462;0.238756
5.630;1.612646;0.220740
5.640;1.602652;0.195567
5.650;1.599463;0.165623
5.660;1.603979;0.133466
5.670;1.617001;0.101235
5.680;1.639121;0.070120
5.690;1.670561;0.040081
5.700;1.711038;0.009962
5.710;1.759698;-0.022058
5.720;1.815120;-0.057821
5.730;1.875407;-0.098607
5.740;1.938342;-0.144771
5.750;2.001586;-0.195688
5.760;2.062903;-0.249951
5.770;2.120345;-0.305739
5.780;2.172361;-0.361225
5.790;2.217783;-0.414897
5.800;2.255689;-0.465715
5.810;2.285187;-0.513085
5.820;2.305212;-0.556756
5.830;2.314392;-0.596760
5.840;2.311027;-0.633468
5.850;2.293177;-0.667721
5.860;2.258847;-0.700851
5.870;2.206278;-0.734495
5.880;2.134283;-0.770138
5.890;2.042570;-0.808511
5.900;1.931953;-0.848992
5.910;1.804399;-0.889281
5.920;1.662873;-0.925582
5.930;1.511016;-0.953410
5.940;1.352746;-0.968813
5.950;1.191918;-0.969525
5.960;1.032152;-0.955572
5.970;0.876876;-0.929149
5.980;0.729477;-0.893945
5.990;0.593412;-0.854248
6.000;0.472111;-0.814098
6.010;0.368617;-0.776674
6.020;0.285059;-0.743991
6.030;0.222209;-0.716935
6.040;0.179313;-0.695491
6.050;0.154274;-0.679060
6.060;0.144114;-0.666740
6.070;0.145511;-0.657570
6.080;0.155252;-0.650725
6.090;0.170498;-0.645660
6.100;0.188870;-0.642155
6.110;0.208428;-0.640283
6.120;0.227622;-0.640305
6.130;0.245256;-0.642517
6.140;0.260446;-0.647125
6.150;0.272547;-0.654159
6.160;0.281039;-0.663460
6.170;0.285428;-0.674664
6.180;0.285235;-0.687192
6.190;0.280096;-0.700246
6.200;0.269937;-0.712888
6.210;0.255154;-0.724171
6.220;0.236688;-0.733282
6.230;0.215990;-0.739615
6.240;0.194884;-0.742804
6.250;0.175365;-0.742749
6.260;0.159350;-0.739636
6.270;0.148389;-0.733879
6.280;0.143416;-0.725979
6.290;0.144653;-0.716349
6.300;0.151726;-0.705231
6.310;0.163965;-0.692775
6.320;0.180732;-0.679206
6.330;0.201685;-0.664971
6.340;0.226878;-0.650750
6.350;0.256725;-0.637341
6.360;0.291817;-0.625492
6.370;0.332672;-0.615765
6.380;0.379469;-0.608475
6.390;0.431842;-0.603715
6.400;0.488799;-0.601392
6.410;0.548790;-0.601266
6.420;0.609922;-0.602959
6.430;0.670234;-0.605991
6.440;0.727941;-0.609876
6.450;0.781562;-0.614263
6.460;0.829899;-0.619024
6.470;0.871918;-0.624238
6.480;0.906626;-0.630105
6.490;0.933041;-0.636858
6.500;0.950287;-0.644687
6.510;0.957763;-0.653668
6.520;0.955335;-0.663680
6.530;0.943448;-0.674339
6.540;0.923110;-0.684975
6.550;0.895762;-0.694687
6.560;0.863060;-0.702457
6.570;0.826668;-0.707305
6.580;0.788108;-0.708427
6.590;0.748734;-0.705298
6.600;0.709807;-0.697745
6.610;0.672637;-0.686050
6.620;0.638692;-0.671030
6.630;0.609605;-0.653972
6.640;0.586990;-0.636328
6.650;0.572109;-0.619249
6.660;0.565531;-0.603174
6.670;0.566933;-0.587674
6.680;0.575184;-0.571636
6.690;0.588684;-0.553681
6.700;0.605807;-0.532674
6.710;0.625289;-0.508128
6.720;0.646410;-0.480416
6.730;0.668960;-0.450702
6.740;0.693050;-0.420653
6.750;0.718866;-0.391996
6.760;0.746453;-0.366111
6.770;0.775600;-0.343773
6.780;0.805835;-0.325132
6.790;0.836514;-0.309896
6.800;0.866929;-0.297594
6.810;0.896388;-0.287829
6.820;0.924199;-0.280419
6.830;0.949602;-0.275451
6.840;0.971708;-0.273205
6.850;0.989540;-0.273983
6.860;1.002176;-0.277855
6.870;1.008959;-0.284442
6.880;1.009652;-0.292844
6.890;1.004481;-0.301825
6.900;0.994062;-0.310177
6.910;0.979265;-0.317106
6.920;0.961069;-0.322412
6.930;0.940436;-0.326400
6.940;0.918212;-0.329596
6.950;0.895039;-0.332473
6.960;0.871326;-0.335309
6.970;0.847266;-0.338205
6.980;0.822873;-0.341179
6.990;0.798028;-0.344216
7.000;0.772540;-0.347235
7.010;0.746201;-0.349984
7.020;0.718853;-0.351983
7.030;0.690435;-0.352564
7.040;0.660986;-0.351023
7.050;0.630610;-0.346846
7.060;0.599407;-0.339923
7.070;0.567405;-0.330637
7.080;0.534527;-0.319795
7.090;0.500627;-0.308393
7.100;0.465608;-0.297341
7.110;0.429587;-0.287242
7.120;0.393045;-0.278301
7.130;0.356871;-0.270379
7.140;0.322306;-0.263119
7.150;0.290808;-0.256094
7.160;0.263858;-0.248883
7.170;0.242788;-0.241045
7.180;0.228658;-0.232012
7.190;0.222222;-0.221043
7.200;0.223937;-0.207349
7.210;0.233963;-0.190383
7.220;0.252135;-0.170161
7.230;0.277946;-0.147404
7.240;0.310550;-0.123406
7.250;0.348778;-0.099659
7.260;0.391181;-0.077392
7.270;0.436119;-0.057227
7.280;0.481896;-0.039126
7.290;0.526928;-0.022633
7.300;0.569870;-0.007247
7.310;0.609668;0.007296
7.320;0.645507;0.020974
7.330;0.676720;0.033625
7.340;0.702711;0.045177
7.350;0.722954;0.055811
7.360;0.737054;0.065967
7.370;0.744831;0.076190
7.380;0.746407;0.086915
7.390;0.742234;0.098270
7.400;0.733080;0.109993
7.410;0.719973;0.121506
7.420;0.704117;0.132120
7.430;0.686764;0.141281
7.440;0.669048;0.148734
7.450;0.651785;0.154549
7.460;0.635324;0.159042
7.470;0.619515;0.162673
7.480;0.603845;0.165994
7.490;0.587718;0.169679
7.500;0.570765;0.174565
7.510;0.553047;0.181625
7.520;0.535106;0.191812
7.530;0.517857;0.205810
7.540;0.502398;0.223754
7.550;0.489777;0.245035
7.560;0.480792;0.268323
7.570;0.475850;0.291843
7.580;0.474879;0.313859
7.590;0.477318;0.333158
7.600;0.482157;0.349315
7.610;0.488061;0.362658
7.620;0.493569;0.373995
7.630;0.497313;0.384267
7.640;0.498172;0.394277
7.650;0.495323;0.404533
7.660;0.488184;0.415213
7.670;0.476348;0.426190
7.680;0.459553;0.437078
7.690;0.437712;0.447311
7.700;0.410920;0.456272
7.710;0.379438;0.463493
7.720;0.343647;0.468879
7.730;0.304001;0.472865
7.740;0.261032;0.476379
7.750;0.215355;0.480627
7.760;0.167670;0.486781
7.770;0.118725;0.495744
7.780;0.069247;0.508045
7.790;0.019895;0.523839
7.800;-0.028743;0.542927
7.810;-0.076114;0.564773
7.820;-0.121645;0.588572
7.830;-0.164706;0.613383
7.840;-0.204596;0.638279
7.850;-0.240563;0.662491
7.860;-0.271869;0.685481
7.870;-0.297880;0.706931
7.880;-0.318178;0.726676
7.890;-0.332647;0.744624
7.900;-0.341482;0.760729
7.910;-0.345128;0.775062
7.920;-0.344171;0.787946
7.930;-0.339275;0.800042
7.940;-0.331184;0.812305
7.950;-0.320767;0.825787
7.960;-0.309068;0.841390
7.970;-0.297309;0.859694
7.980;-0.286809;0.880912
7.990;-0.278793;0.904945
8.000;-0.274114;0.931446
8.010;-0.272935;0.959866
8.020;-0.274502;0.989525
8.030;-0.277125;1.019779
8.040;-0.278372;1.050261
8.050;-0.275459;1.081142
8.060;-0.265699;1.113231
