Time[s];COPx[cm];COPy[cm]
0.010;-0.418617;0.543621
0.020;-0.422844;0.543305
0.030;-0.426977;0.542238
0.040;-0.430900;0.540048
0.050;-0.434497;0.536894
0.060;-0.437668;0.533352
0.070;-0.440352;0.530108
0.080;-0.442531;0.527627
0.090;-0.444233;0.525955
0.100;-0.445523;0.524707
0.110;-0.446466;0.523227
0.120;-0.447067;0.520817
0.130;-0.447197;0.516969
0.140;-0.446553;0.511532
0.150;-0.444675;0.504747
0.160;-0.441069;0.497167
0.170;-0.435386;0.489438
0.180;-0.427569;0.482065
0.190;-0.417882;0.475240
0.200;-0.406780;0.468807
0.210;-0.394658;0.462382
0.220;-0.381639;0.455535
0.230;-0.367493;0.447997
0.240;-0.351749;0.439824
0.250;-0.333927;0.431479
0.260;-0.313764;0.423781
0.270;-0.291322;0.417702
0.280;-0.266955;0.414057
0.290;-0.241208;0.413202
0.300;-0.214740;0.414895
0.310;-0.188266;0.418394
0.320;-0.162501;0.422790
0.330;-0.138059;0.427374
0.340;-0.115331;0.431873
0.350;-0.094404;0.436471
0.360;-0.075083;0.441657
0.370;-0.057027;0.447994
0.380;-0.039944;0.455882
0.390;-0.023768;0.465381
0.400;-0.008720;0.476144
0.410;0.004775;0.487493
0.420;0.016271;0.498621
0.430;0.025513;0.508860
0.440;0.032570;0.517882
0.450;0.037872;0.525774
0.460;0.042182;0.532945
0.470;0.046509;0.539929
0.480;0.051954;0.547142
0.490;0.059489;0.554687
0.500;0.069695;0.562273
0.510;0.082576;0.569288
0.520;0.097522;0.575015
0.530;0.113461;0.578890
0.540;0.129161;0.580706
0.550;0.143552;0.580691
0.560;0.155986;0.579465
0.570;0.166339;0.577881
0.580;0.174958;0.576796
0.590;0.182464;0.576851
0.600;0.189484;0.578321
0.610;0.196418;0.581100
0.620;0.203303;0.584812
0.630;0.209828;0.588971
0.640;0.215430;0.593145
0.650;0.219436;0.597048
0.660;0.221199;0.600565
0.670;0.220252;0.603721
0.680;0.216457;0.606643
0.690;0.210128;0.609510
0.700;0.202045;0.612484
0.710;0.193347;0.615616
0.720;0.185310;0.618757
0.730;0.179093;0.621551
0.740;0.175540;0.623553
0.750;0.175080;0.624451
0.760;0.177720;0.624259
0.770;0.183095;0.623374
0.780;0.190535;0.622440
0.790;0.199186;0.622101
0.800;0.208166;0.622792
0.810;0.216727;0.624659
0.820;0.224390;0.627597
0.830;0.231012;0.631344
0.840;0.236775;0.635562
0.850;0.242086;0.639868
0.860;0.247390;0.643847
0.870;0.252947;0.647079
0.880;0.258679;0.649209
0.890;0.264157;0.650039
0.900;0.268760;0.649600
0.910;0.271926;0.648190
0.920;0.273398;0.646335
0.930;0.273347;0.644683
0.940;0.272332;0.643834
0.950;0.271105;0.644141
0.960;0.270357;0.645577
0.970;0.270506;0.647730
0.980;0.271612;0.649963
0.990;0.273403;0.651647
1.000;0.275417;0.652373
1.010;0.277172;0.652046
1.020;0.278341;0.650892
1.030;0.278857;0.649388
1.040;0.278913;0.648172
1.050;0.278833;0.647934
1.060;0.278892;0.649280
1.070;0.279142;0.652588
1.080;0.279345;0.657891
1.090;0.279039;0.664811
1.100;0.277712;0.672602
1.110;0.275010;0.680287
1.120;0.270904;0.686879
1.130;0.265752;0.691615
1.140;0.260235;0.694124
1.150;0.255191;0.694458
1.160;0.251397;0.693017
1.170;0.249379;0.690438
1.180;0.249286;0.687488
1.190;0.250873;0.684955
1.200;0.253614;0.683489
1.210;0.256915;0.683411
1.220;0.260346;0.684573
1.230;0.263800;0.686341
1.240;0.267510;0.687754
1.250;0.271930;0.687818
1.260;0.277543;0.685819
1.270;0.284652;0.681575
1.280;0.293241;0.675514
1.290;0.302943;0.668563
1.300;0.313149;0.661860
1.310;0.323169;0.656413
1.320;0.332384;0.652809
1.330;0.340306;0.651068
1.340;0.346578;0.650665
1.350;0.350961;0.650728
1.360;0.353377;0.650340
1.370;0.354002;0.648850
1.380;0.353341;0.646072
1.390;0.352204;0.642300
1.400;0.351542;0.638157
1.410;0.352173;0.634363
1.420;0.354495;0.631496
1.430;0.358302;0.629855
1.440;0.362813;0.629430
1.450;0.366904;0.629969
1.460;0.369461;0.631092
1.470;0.369723;0.632395
1.480;0.367491;0.633521
1.490;0.363133;0.634193
1.500;0.357380;0.634229
1.510;0.351026;0.633518
1.520;0.344665;0.632018
1.530;0.338570;0.629737
1.540;0.332726;0.626739
1.550;0.326944;0.623123
1.560;0.320991;0.618995
1.570;0.314657;0.614453
1.580;0.307784;0.609613
1.590;0.300262;0.604654
1.600;0.292019;0.599830
1.610;0.283027;0.595450
1.620;0.273328;0.591813
1.630;0.263088;0.589133
1.640;0.252658;0.587492
1.650;0.242602;0.586813
1.660;0.233662;0.586871
1.670;0.226644;0.587314
1.680;0.222247;0.587702
1.690;0.220901;0.587562
1.700;0.222672;0.586482
1.710;0.227260;0.584244
1.720;0.234097;0.580944
1.730;0.242487;0.577028
1.740;0.251768;0.573217
1.750;0.261416;0.570301
1.760;0.271097;0.568903
1.770;0.280668;0.569271
1.780;0.290171;0.571197
1.790;0.299809;0.574098
1.800;0.309882;0.577239
1.810;0.320684;0.579965
1.820;0.332377;0.581852
1.830;0.344909;0.582723
1.840;0.358007;0.582592
1.850;0.371246;0.581620
1.860;0.384173;0.580085
1.870;0.396441;0.578340
1.880;0.407889;0.576725
1.890;0.418546;0.575463
1.900;0.428562;0.574609
1.910;0.438129;0.574078
1.920;0.447425;0.573706
1.930;0.456580;0.573301
1.940;0.465658;0.572669
1.950;0.474645;0.571612
1.960;0.483449;0.569956
1.970;0.491897;0.567591
1.980;0.499714;0.564554
1.990;0.506496;0.561066
2.000;0.511730;0.557499
2.010;0.514901;0.554221
2.020;0.515668;0.551391
2.030;0.514034;0.548840
2.040;0.510382;0.546158
2.050;0.505372;0.542959
2.060;0.499728;0.539153
2.070;0.494009;0.535055
2.080;0.488459;0.531281
2.090;0.482964;0.528529
2.100;0.477119;0.527387
2.110;0.470374;0.528195
2.120;0.462232;0.530978
2.130;0.452439;0.535400
2.140;0.441081;0.540773
2.150;0.428570;0.546155
2.160;0.415508;0.550536
2.170;0.402510;0.553066
2.180;0.390043;0.553263
2.190;0.378340;0.551127
2.200;0.367391;0.547124
2.210;0.356996;0.542043
2.220;0.346844;0.536787
2.230;0.336627;0.532160
2.240;0.326146;0.528742
2.250;0.315385;0.526842
2.260;0.304541;0.526519
2.270;0.293988;0.527642
2.280;0.284212;0.529957
2.290;0.275727;0.533161
2.300;0.268984;0.536950
2.310;0.264327;0.541040
2.320;0.261956;0.545175
2.330;0.261872;0.549144
2.340;0.263818;0.552801
2.350;0.267258;0.556053
2.360;0.271471;0.558813
2.370;0.275743;0.560953
2.380;0.279587;0.562325
2.390;0.282847;0.562818
2.400;0.285638;0.562431
2.410;0.288146;0.561306
2.420;0.290401;0.559738
2.430;0.292160;0.558130
2.440;0.292981;0.556882
2.450;0.292425;0.556233
2.460;0.290298;0.556176
2.470;0.286811;0.556480
2.480;0.282590;0.556831
2.490;0.278538;0.556967
2.500;0.275573;0.556739
2.510;0.274343;0.556085
2.520;0.275021;0.554975
2.530;0.277245;0.553421
2.540;0.280228;0.551530
2.550;0.282972;0.549562
2.560;0.284552;0.547909
2.570;0.284375;0.546991
2.580;0.282352;0.547104
2.590;0.278889;0.548290
2.600;0.274734;0.550295
2.610;0.270728;0.552642
2.620;0.267561;0.554764
2.630;0.265596;0.556150
2.640;0.264789;0.556464
2.650;0.264744;0.555642
2.660;0.264867;0.553934
2.670;0.264598;0.551861
2.680;0.263596;0.550057
2.690;0.261853;0.549031
2.700;0.259677;0.548978
2.710;0.257606;0.549723
2.720;0.256241;0.550846
2.730;0.256089;0.551911
2.740;0.257398;0.552674
2.750;0.260073;0.553173
2.760;0.263667;0.553646
2.770;0.267495;0.554351
2.780;0.270799;0.555390
2.790;0.272934;0.556662
2.800;0.273498;0.557923
2.810;0.272413;0.558896
2.820;0.269931;0.559340
2.830;0.266565;0.559049
2.840;0.262931;0.557829
2.850;0.259541;0.555543
2.860;0.256635;0.552246
2.870;0.254113;0.548329
2.880;0.251584;0.544534
2.890;0.248520;0.541761
2.900;0.244449;0.540752
2.910;0.239125;0.541782
2.920;0.232617;0.544536
2.930;0.225267;0.548210
2.940;0.217555;0.551780
2.950;0.209912;0.554321
2.960;0.202566;0.555272
2.970;0.195484;0.554556
2.980;0.188421;0.552518
2.990;0.181054;0.549702
3.000;0.173129;0.546589
3.010;0.164571;0.543442
3.020;0.155504;0.540309
3.030;0.146219;0.537156
3.040;0.137079;0.534028
3.050;0.128418;0.531126
3.060;0.120438;0.528792
3.070;0.113153;0.527399
3.080;0.106410;0.527240
3.090;0.099982;0.528439
3.100;0.093717;0.530936
3.110;0.087674;0.534504
3.120;0.082169;0.538795
3.130;0.077722;0.543390
3.140;0.074912;0.547834
3.150;0.074215;0.551675
3.160;0.075894;0.554511
3.170;0.079964;0.556045
3.180;0.086245;0.556166
3.190;0.094468;0.555032
3.200;0.104371;0.553124
3.210;0.115731;0.551193
3.220;0.128355;0.550073
3.230;0.142044;0.550384
3.240;0.156582;0.552250
3.250;0.171766;0.555219
3.260;0.187469;0.558441
3.270;0.203700;0.561061
3.280;0.220617;0.562607
3.290;0.238456;0.563182
3.300;0.257396;0.563343
3.310;0.277425;0.563777
3.320;0.298271;0.564968
3.330;0.319438;0.567035
3.340;0.340288;0.569808
3.350;0.360131;0.573022
3.360;0.378292;0.576485
3.370;0.394193;0.580131
3.380;0.407455;0.583935
3.390;0.418014;0.587819
3.400;0.426168;0.591607
3.410;0.432514;0.595073
3.420;0.437763;0.598015
3.430;0.442511;0.600304
3.440;0.447048;0.601890
3.450;0.451294;0.602771
3.460;0.454874;0.602946
3.470;0.457284;0.602386
3.480;0.458060;0.601066
3.490;0.456907;0.599049
3.500;0.453766;0.596591
3.510;0.448823;0.594151
3.520;0.442462;0.592273
3.530;0.435171;0.591380
3.540;0.427430;0.591602
3.550;0.419641;0.592744
3.560;0.412140;0.594412
3.570;0.405263;0.596233
3.580;0.399431;0.598051
3.590;0.395144;0.599981
3.600;0.392859;0.602265
3.610;0.392776;0.605009
3.620;0.394657;0.607981
3.630;0.397793;0.610606
3.640;0.401170;0.612192
3.650;0.403781;0.612248
3.660;0.404932;0.610741
3.670;0.404428;0.608137
3.680;0.402558;0.605210
3.690;0.399902;0.602720
3.700;0.397068;0.601106
3.710;0.394480;0.600363
3.720;0.392309;0.600135
3.730;0.390534;0.599959
3.740;0.389050;0.599547
3.750;0.387714;0.598961
3.760;0.386330;0.598608
3.770;0.384610;0.599036
3.780;0.382200;0.600638
3.790;0.378803;0.603405
3.800;0.374349;0.606849
3.810;0.369117;0.610127
3.820;0.363710;0.612320
3.830;0.358864;0.612756
3.840;0.355205;0.611261
3.850;0.353042;0.608234
3.860;0.352298;0.604524
3.870;0.352570;0.601161
3.880;0.353254;0.599035
3.890;0.353716;0.598632
3.900;0.353447;0.599910
3.910;0.352217;0.602358
3.920;0.350156;0.605207
3.930;0.347744;0.607697
3.940;0.345674;0.609314
3.950;0.344609;0.609909
3.960;0.344918;0.609695
3.970;0.346493;0.609137
3.980;0.348765;0.608780
3.990;0.350930;0.609062
4.000;0.352273;0.610149
4.010;0.352447;0.611845
4.020;0.351588;0.613630
4.030;0.350260;0.614842
4.040;0.349288;0.614938
4.050;0.349530;0.613731
4.060;0.351646;0.611477
4.070;0.355936;0.608787
4.080;0.362311;0.606424
4.090;0.370406;0.605051
4.100;0.379795;0.605041
4.110;0.390159;0.606372
4.120;0.401348;0.608643
4.130;0.413324;0.611195
4.140;0.426063;0.613331
4.150;0.439493;0.614576
4.160;0.453500;0.614860
4.170;0.467998;0.614531
4.180;0.482980;0.614180
4.190;0.498504;0.614380
4.200;0.514600;0.615478
4.210;0.531163;0.617527
4.220;0.547892;0.620338
4.230;0.564300;0.623595
4.240;0.579790;0.626952
4.250;0.593771;0.630112
4.260;0.605753;0.632861
4.270;0.615436;0.635096
4.280;0.622745;0.636826
4.290;0.627836;0.638159
4.300;0.631052;0.639253
4.310;0.632851;0.640274
4.320;0.633722;0.641351
4.330;0.634102;0.642568
4.340;0.634319;0.643960
4.350;0.634582;0.645522
4.360;0.634994;0.647223
4.370;0.635575;0.649007
4.380;0.636278;0.650804
4.390;0.637024;0.652547
4.400;0.637747;0.654232
4.410;0.638456;0.655944
4.420;0.639236;0.657841
4.430;0.640202;0.660072
4.440;0.641425;0.662682
4.450;0.642872;0.665541
4.460;0.644406;0.668350
4.470;0.645844;0.670724
4.480;0.647049;0.672355
4.490;0.648008;0.673156
4.500;0.648860;0.673314
4.510;0.649873;0.673164
4.520;0.651379;0.672975
4.530;0.653707;0.672755
4.540;0.657106;0.672223
4.550;0.661678;0.670990
4.560;0.667332;0.668857
4.570;0.673789;0.666068
4.580;0.680667;0.663331
4.590;0.687614;0.661571
4.600;0.694423;0.661521
4.610;0.701072;0.663340
4.620;0.707689;0.666490
4.630;0.714504;0.669921
4.640;0.721791;0.672504
4.650;0.729795;0.673498
4.660;0.738609;0.672818
4.670;0.748066;0.671024
4.680;0.757695;0.669018
4.690;0.766822;0.667622
4.700;0.774764;0.667229
4.710;0.781039;0.667714
4.720;0.785474;0.668630
4.730;0.788199;0.669552
4.740;0.789540;0.670327
4.750;0.789866;0.671105
4.760;0.789459;0.672147
4.770;0.788458;0.673587
4.780;0.786921;0.675276
4.790;0.784921;0.676813
4.800;0.782623;0.677735
4.810;0.780244;0.677767
4.820;0.777949;0.677015
4.830;0.775727;0.675993
4.840;0.773356;0.675466
4.850;0.770480;0.676150
4.860;0.766781;0.678422
4.870;0.762165;0.682175
4.880;0.756853;0.686898
4.890;0.751337;0.691874
4.900;0.746211;0.696399
4.910;0.741958;0.699935
4.920;0.738786;0.702200
4.930;0.736571;0.703204
4.940;0.734922;0.703226
4.950;0.733331;0.702722
4.960;0.731334;0.702202
4.970;0.728617;0.702093
4.980;0.725070;0.702631
4.990;0.720798;0.703812
5.000;0.716098;0.705416
5.010;0.711404;0.707103
5.020;0.707205;0.708543
5.030;0.703952;0.709522
5.040;0.701983;0.709979
5.050;0.701463;0.710008
5.060;0.702358;0.709802
5.070;0.704459;0.709586
5.080;0.707457;0.709532
5.090;0.711018;0.709681
5.100;0.714831;0.709913
5.110;0.718614;0.709995
5.120;0.722105;0.709701
5.130;0.725054;0.708937
5.140;0.727234;0.707800
5.150;0.728481;0.706522
5.160;0.728709;0.705333
5.170;0.727902;0.704337
5.180;0.726070;0.703424
5.190;0.723206;0.702297
5.200;0.719283;0.700580
5.210;0.714307;0.698004
5.220;0.708374;0.694585
5.230;0.701697;0.690675
5.240;0.694559;0.686847
5.250;0.687187;0.683642
5.260;0.679608;0.681333
5.270;0.671553;0.679815
5.280;0.662528;0.678661
5.290;0.652014;0.677296
5.300;0.639696;0.675230
5.310;0.625590;0.672265
5.320;0.610020;0.668612
5.330;0.593478;0.664840
5.340;0.576442;0.661662
5.350;0.559227;0.659612
5.360;0.541883;0.658791
5.370;0.524220;0.658794
5.380;0.505918;0.658872
5.390;0.486712;0.658227
5.400;0.466527;0.656271
5.410;0.445517;0.652749
5.420;0.423998;0.647719
5.430;0.402346;0.641464
5.440;0.380899;0.634410
5.450;0.359906;0.627076
5.460;0.339508;0.620030
5.470;0.319733;0.613827
5.480;0.300532;0.608934
5.490;0.281844;0.605647
5.500;0.263672;0.604024
5.510;0.246134;0.603854
5.520;0.229470;0.604715
5.530;0.213976;0.606133
5.540;0.199910;0.607764
5.550;0.187389;0.609453
5.560;0.176356;0.611157
5.570;0.166645;0.612790
5.580;0.158101;0.614134
5.590;0.150671;0.614882
5.600;0.144396;0.614790
5.610;0.139321;0.613837
5.620;0.135386;0.612305
5.630;0.132340;0.610721
5.640;0.129707;0.609690
5.650;0.126826;0.609694
5.660;0.122952;0.610950
5.670;0.117473;0.613418
5.680;0.110169;0.616906
5.690;0.101409;0.621223
5.700;0.092161;0.626256
5.710;0.083736;0.631957
5.720;0.077390;0.638261
5.730;0.073925;0.645015
5.740;0.073484;0.651936
5.750;0.075582;0.658634
5.760;0.079331;0.664664
5.770;0.083766;0.669641
5.780;0.088130;0.673352
5.790;0.092038;0.675824
5.800;0.095482;0.677318
5.810;0.098717;0.678259
5.820;0.102082;0.679141
5.830;0.105871;0.680426
5.840;0.110292;0.682444
5.850;0.115488;0.685316
5.860;0.121568;0.688932
5.870;0.128580;0.692991
5.880;0.136433;0.697100
5.890;0.144854;0.700885
5.900;0.153446;0.704090
5.910;0.161829;0.706617
5.920;0.169780;0.708521
5.930;0.177318;0.709979
5.940;0.184693;0.711270
5.950;0.192323;0.712774
5.960;0.200689;0.714943
5.970;0.210225;0.718200
5.980;0.221223;0.722769
5.990;0.233798;0.728513
6.000;0.247905;0.734896
6.010;0.263386;0.741112
6.020;0.279979;0.746335
6.030;0.297303;0.750007
6.040;0.314821;0.752043
6.050;0.331816;0.752874
6.060;0.347434;0.753299
6.070;0.360782;0.754195
6.080;0.371103;0.756216
6.090;0.377968;0.759610
6.100;0.381413;0.764221
6.110;0.381951;0.769615
6.120;0.380427;0.775254
6.130;0.377771;0.780635
6.140;0.374740;0.785373
6.150;0.371738;0.789222
6.160;0.368769;0.792058
6.170;0.365508;0.793844
6.180;0.361452;0.794604
6.190;0.356121;0.794430
6.200;0.349229;0.793463
6.210;0.340807;0.791858
6.220;0.331235;0.789717
6.230;0.321171;0.787048
6.240;0.311407;0.783781
6.250;0.302635;0.779870
6.260;0.295225;0.775432
6.270;0.289073;0.770834
6.280;0.283611;0.766631
6.290;0.277993;0.763366
6.300;0.271347;0.761328
6.310;0.263006;0.760417
6.320;0.252628;0.760193
6.330;0.240193;0.760078
6.340;0.225938;0.759596
6.350;0.210276;0.758514
6.360;0.193734;0.756836
6.370;0.176895;0.754680
6.380;0.160342;0.752160
6.390;0.144584;0.749312
6.400;0.129968;0.746094
6.410;0.116597;0.742403
6.420;0.104285;0.738104
6.430;0.092580;0.733058
6.440;0.080871;0.727166
6.450;0.068555;0.720421
6.460;0.055213;0.712929
6.470;0.040775;0.704884
6.480;0.025581;0.696505
6.490;0.010307;0.687971
6.500;-0.004240;0.679376
6.510;-0.017389;0.670735
6.520;-0.028819;0.662026
6.530;-0.038627;0.653224
6.540;-0.047223;0.644314
6.550;-0.055130;0.635283
6.560;-0.062776;0.626128
6.570;-0.070353;0.616878
6.580;-0.077747;0.607607
6.590;-0.084571;0.598422
6.600;-0.090264;0.589441
6.610;-0.094260;0.580786
6.620;-0.096174;0.572583
6.630;-0.095915;0.564956
6.640;-0.093679;0.558023
6.650;-0.089812;0.551844
6.660;-0.084607;0.546367
6.670;-0.078156;0.541397
6.680;-0.070344;0.536638
6.690;-0.060958;0.531822
6.700;-0.049836;0.526878
6.710;-0.036949;0.522019
6.720;-0.022369;0.517710
6.730;-0.006214;0.514499
6.740;0.011361;0.512777
6.750;0.030082;0.512575
6.760;0.049464;0.513491
6.770;0.068789;0.514815
6.780;0.087234;0.515799
6.790;0.104081;0.515937
6.800;0.118956;0.515097
6.810;0.131955;0.513458
6.820;0.143590;0.511321
6.830;0.154561;0.508941
6.840;0.165437;0.506468
6.850;0.176400;0.503989
6.860;0.187183;0.501613
6.870;0.197215;0.499493
6.880;0.205899;0.497780
6.890;0.212851;0.496549
6.900;0.218036;0.495736
6.910;0.221786;0.495142
6.920;0.224727;0.494472
6.930;0.227682;0.493411
6.940;0.231528;0.491720
6.950;0.237034;0.489334
6.960;0.244674;0.486395
6.970;0.254476;0.483217
6.980;0.265991;0.480185
6.990;0.278405;0.477626
7.000;0.290782;0.475680
7.010;0.302321;0.474202
7.020;0.312571;0.472740
7.030;0.321511;0.470639
7.040;0.329502;0.467292
7.050;0.337112;0.462399
7.060;0.344879;0.456118
7.070;0.353088;0.448983
7.080;0.361636;0.441686
7.090;0.370032;0.434832
7.100;0.377527;0.428804
7.110;0.383331;0.423757
7.120;0.386851;0.419692
7.130;0.387875;0.416556
7.140;0.386654;0.414297
7.150;0.383836;0.412875
7.160;0.380289;0.412203
7.170;0.376869;0.412071
7.180;0.374222;0.412118
7.190;0.372683;0.411901
7.200;0.372278;0.411027
7.210;0.372798;0.409306
7.220;0.373909;0.406830
7.230;0.375273;0.403954
7.240;0.376648;0.401167
7.250;0.377951;0.398940
7.260;0.379261;0.397595
7.270;0.380769;0.397240
7.280;0.382688;0.397784
7.290;0.385174;0.398988
7.300;0.388296;0.400533
7.310;0.392099;0.402083
7.320;0.396681;0.403356
7.330;0.402224;0.404202
7.340;0.408926;0.404672
7.350;0.416853;0.405035
7.360;0.425808;0.405714
7.370;0.435276;0.407131
7.380;0.444496;0.409543
7.390;0.452645;0.412926
7.400;0.459100;0.416978
7.410;0.463651;0.421222
7.420;0.466596;0.425173
7.430;0.468652;0.428513
7.440;0.470722;0.431183
7.450;0.473590;0.433379
7.460;0.477670;0.435444
7.470;0.482889;0.437743
7.480;0.488735;0.440575
7.490;0.494432;0.444135
7.500;0.499182;0.448499
7.510;0.502405;0.453594
7.520;0.503910;0.459179
7.530;0.503924;0.464857
7.540;0.502974;0.470144
7.550;0.501646;0.474603
7.560;0.500332;0.478018
7.570;0.499089;0.480530
7.580;0.497671;0.482676
7.590;0.495688;0.485248
7.600;0.492819;0.489036
7.610;0.488972;0.494545
7.620;0.484356;0.501821
7.630;0.479447;0.510460
7.640;0.474865;0.519788
7.650;0.471171;0.529083
7.660;0.468668;0.537761
7.670;0.467269;0.545429
7.680;0.466500;0.551869
7.690;0.465648;0.557002
7.700;0.464023;0.560929
7.710;0.461212;0.564024
7.720;0.457247;0.566973
7.730;0.452580;0.570665
7.740;0.447869;0.575906
7.750;0.443699;0.583108
7.760;0.440356;0.592122
7.770;0.437762;0.602297
7.780;0.435574;0.612750
7.790;0.433322;0.622683
7.800;0.430535;0.631615
7.810;0.426808;0.639420
7.820;0.421881;0.646213
7.830;0.415713;0.652175
7.840;0.408540;0.657454
7.850;0.400809;0.662180
7.860;0.393035;0.666552
7.870;0.385606;0.670924
7.880;0.378668;0.675786
7.890;0.372101;0.681638
7.900;0.365561;0.688794
7.910;0.358544;0.697248
7.920;0.350460;0.706670
7.930;0.340763;0.716557
7.940;0.329121;0.726416
7.950;0.315575;0.735874
7.960;0.300597;0.744679
7.970;0.284990;0.752621
7.980;0.269672;0.759472
7.990;0.255416;0.764987
8.000;0.242676;0.768978
8.010;0.231546;0.771435
8.020;0.221869;0.772573
8.030;0.213389;0.772783
8.040;0.205895;0.772471
8.050;0.199282;0.771903
8.060;0.193551;0.771154
8.070;0.188781;0.770204
8.080;0.185086;0.769109
8.090;0.182571;0.768113
8.100;0.181272;0.767596
8.110;0.181116;0.767866
8.120;0.181928;0.768933
8.130;0.183488;0.770447
8.140;0.185626;0.771863
8.150;0.188299;0.772702
8.160;0.191637;0.772734
8.170;0.195925;0.771989
8.180;0.201535;0.770654
8.190;0.208809;0.768959
8.200;0.217964;0.767109
8.210;0.229015;0.765260
8.220;0.241782;0.763523
8.230;0.255976;0.761966
8.240;0.271365;0.760607
8.250;0.287956;0.759386
8.260;0.306064;0.758138
8.270;0.326176;0.756596
8.280;0.348659;0.754456
8.290;0.373447;0.751483
