Time[s];COPx[cm];COPy[cm]
0.010;3.337469;0.778323
0.020;3.334675;0.784259
0.030;3.330036;0.788378
0.040;3.322320;0.789405
0.050;3.311302;0.786938
0.060;3.297813;0.781470
0.070;3.283445;0.774152
0.080;3.270038;0.766399
0.090;3.259138;0.759513
0.100;3.251597;0.754428
0.110;3.247397;0.751631
0.120;3.245731;0.751213
0.130;3.245291;0.752972
0.140;3.244692;0.756499
0.150;3.242910;0.761227
0.160;3.239606;0.766490
0.170;3.235231;0.771597
0.180;3.230878;0.775952
0.190;3.227927;0.779208
0.200;3.227571;0.781396
0.210;3.230408;0.782962
0.220;3.236243;0.784657
0.230;3.244192;0.787296
0.240;3.253056;0.791501
0.250;3.261777;0.797557
0.260;3.269810;0.805465
0.270;3.277245;0.815154
0.280;3.284663;0.826700
0.290;3.292792;0.840440
0.300;3.302141;0.856918
0.310;3.312780;0.876721
0.320;3.324333;0.900298
0.330;3.336167;0.927844
0.340;3.347651;0.959265
0.350;3.358393;0.994211
0.360;3.368322;1.032136
0.370;3.377622;1.072384
0.380;3.386518;1.114293
0.390;3.395049;1.157317
0.400;3.402928;1.201165
0.410;3.409549;1.245881
0.420;3.414138;1.291833
0.430;3.415979;1.339600
0.440;3.414632;1.389783
0.450;3.410057;1.442823
0.460;3.402583;1.498838
0.470;3.392762;1.557524
0.480;3.381168;1.618137
0.490;3.368254;1.679583
0.500;3.354295;1.740612
0.510;3.339425;1.800084
0.520;3.323688;1.857205
0.530;3.307067;1.911654
0.540;3.289493;1.963530
0.550;3.270865;2.013147
0.560;3.251112;2.060778
0.570;3.230272;2.106450
0.580;3.208536;2.149888
0.590;3.186240;2.190627
0.600;3.163791;2.228202
0.610;3.141562;2.262338
0.620;3.119787;2.293025
0.630;3.098511;2.320466
0.640;3.077619;2.344945
0.650;3.056932;2.366711
0.660;3.036300;2.385952
0.670;3.015646;2.402895
0.680;2.994918;2.417914
0.690;2.973974;2.431566
0.700;2.952447;2.444471
0.710;2.929659;2.457097
0.720;2.904639;2.469530
0.730;2.876257;2.481357
0.740;2.843436;2.491741
0.750;2.805380;2.499679
0.760;2.761788;2.504341
0.770;2.712982;2.505370
0.780;2.659926;2.503030
0.790;2.604130;2.498172
0.800;2.547454;2.492032
0.810;2.491864;2.485935
0.820;2.439170;2.480991
0.830;2.390783;2.477878
0.840;2.347536;2.476762
0.850;2.309608;2.477394
0.860;2.276596;2.479356
0.870;2.247715;2.482340
0.880;2.222052;2.486336
0.890;2.198797;2.491617
0.900;2.177389;2.498566
0.910;2.157584;2.507435
0.920;2.139475;2.518151
0.930;2.123489;2.530233
0.940;2.110360;2.542820
0.950;2.101028;2.554771
0.960;2.096444;2.564809
0.970;2.097333;2.571697
0.980;2.103988;2.574413
0.990;2.116188;2.572327
1.000;2.133268;2.565344
1.010;2.154322;2.553992
1.020;2.178453;2.539401
1.030;2.205033;2.523116
1.040;2.233865;2.506760
1.050;2.265201;2.491650
1.060;2.299599;2.478511
1.070;2.337637;2.467382
1.080;2.379599;2.457706
1.090;2.425250;2.448563
1.100;2.473809;2.438945
1.110;2.524151;2.427993
1.120;2.575173;2.415124
1.130;2.626166;2.399989
1.140;2.677018;2.382278
1.150;2.728158;2.361462
1.160;2.780232;2.336619
1.170;2.833696;2.306431
1.180;2.888490;2.269372
1.190;2.943980;2.223993
1.200;2.999224;2.169223
1.210;3.053441;2.104603
1.220;3.106492;2.030410
1.230;3.159106;1.947656
1.240;3.212757;1.857934
1.250;3.269206;1.763143
1.260;3.329932;1.665149
1.270;3.395668;1.565482
1.280;3.466211;1.465145
1.290;3.540525;1.364601
1.300;3.617056;1.263895
1.310;3.694148;1.162841
1.320;3.770467;1.061167
1.330;3.845314;0.958587
1.340;3.918743;0.854851
1.350;3.991431;0.749836
1.360;4.064340;0.643730
1.370;4.138308;0.537207
1.380;4.213723;0.431466
1.390;4.290403;0.328080
1.400;4.367657;0.228703
1.410;4.444450;0.134782
1.420;4.519600;0.047392
1.430;4.591957;-0.032765
1.440;4.660558;-0.105284
1.450;4.724727;-0.169958
1.460;4.784100;-0.226749
1.470;4.838564;-0.275808
1.480;4.888182;-0.317522
1.490;4.933120;-0.352528
1.500;4.973620;-0.381641
1.510;5.009987;-0.405698
1.520;5.042561;-0.425338
1.530;5.071647;-0.440832
1.540;5.097408;-0.452054
1.550;5.119787;-0.458650
1.560;5.138504;-0.460340
1.570;5.153142;-0.457203
1.580;5.163307;-0.449776
1.590;5.168821;-0.438921
1.600;5.169849;-0.425511
1.610;5.166889;-0.410143
1.620;5.160645;-0.393024
1.630;5.151828;-0.374084
1.640;5.141006;-0.353248
1.650;5.128542;-0.330722
1.660;5.114611;-0.307121
1.670;5.099266;-0.283384
1.680;5.082487;-0.260491
1.690;5.064191;-0.239143
1.700;5.044182;-0.219537
1.710;5.022093;-0.201332
1.720;4.997355;-0.183771
1.730;4.969242;-0.165868
1.740;4.936948;-0.146566
1.750;4.899678;-0.124864
1.760;4.856721;-0.099947
1.770;4.807518;-0.071327
1.780;4.751714;-0.038990
1.790;4.689209;-0.003502
1.800;4.620173;0.033984
1.810;4.545054;0.071856
1.820;4.464589;0.108291
1.830;4.379789;0.141566
1.840;4.291950;0.170349
1.850;4.202649;0.193922
1.860;4.113747;0.212326
1.870;4.027297;0.226387
1.880;3.945319;0.237580
1.890;3.869466;0.247731
1.900;3.800707;0.258623
1.910;3.739225;0.271671
1.920;3.684598;0.287781
1.930;3.636212;0.307429
1.940;3.593715;0.330842
1.950;3.557264;0.358138
1.960;3.527472;0.389321
1.970;3.505130;0.424142
1.980;3.490865;0.461919
1.990;3.484915;0.501417
2.000;3.487066;0.540880
2.010;3.496741;0.578255
2.020;3.513159;0.611560
2.030;3.535459;0.639291
2.040;3.562719;0.660726
2.050;3.593889;0.676042
2.060;3.627720;0.686221
2.070;3.662764;0.692785
2.080;3.697471;0.697436
2.090;3.730360;0.701685
2.100;3.760179;0.706577
2.110;3.786056;0.712576
2.120;3.807609;0.719678
2.130;3.825036;0.727682
2.140;3.839138;0.736495
2.150;3.851213;0.746297
2.160;3.862794;0.757456
2.170;3.875273;0.770267
2.180;3.889525;0.784678
2.190;3.905673;0.800180
2.200;3.923078;0.815934
2.210;3.940580;0.831055
2.220;3.956881;0.844901
2.230;3.970952;0.857256
2.240;3.982278;0.868356
2.250;3.990899;0.878765
2.260;3.997243;0.889189
2.270;4.001889;0.900254
2.280;4.005391;0.912334
2.290;4.008231;0.925464
2.300;4.010863;0.939365
2.310;4.013770;0.953563
2.320;4.017503;0.967553
2.330;4.022663;0.980923
2.340;4.029861;0.993386
2.350;4.039618;1.004735
2.360;4.052188;1.014787
2.370;4.067371;1.023362
2.380;4.084405;1.030322
2.390;4.102066;1.035674
2.400;4.118956;1.039703
2.410;4.133862;1.043061
2.420;4.146017;1.046718
2.430;4.155148;1.051762
2.440;4.161330;1.059102
2.450;4.164754;1.069225
2.460;4.165527;1.082075
2.470;4.163601;1.097083
2.480;4.158842;1.113309
2.490;4.151194;1.129647
2.500;4.140869;1.145034
2.510;4.128451;1.158665
2.520;4.114864;1.170173
2.530;4.101194;1.179742
2.540;4.088433;1.188082
2.550;4.077232;1.196241
2.560;4.067778;1.205320
2.570;4.059824;1.216194
2.580;4.052875;1.229327
2.590;4.046444;1.244710
2.600;4.040296;1.261922
2.610;4.034556;1.280303
2.620;4.029671;1.299165
2.630;4.026241;1.318002
2.640;4.024813;1.336631
2.650;4.025710;1.355276
2.660;4.028948;1.374555
2.670;4.034256;1.395395
2.680;4.041165;1.418838
2.690;4.049139;1.445768
2.700;4.057705;1.476664
2.710;4.066508;1.511433
2.720;4.075275;1.549417
2.730;4.083692;1.589554
2.740;4.091326;1.630660
2.750;4.097659;1.671729
2.760;4.102228;1.712126
2.770;4.104779;1.751606
2.780;4.105352;1.790152
2.790;4.104250;1.827728
2.800;4.101908;1.864063
2.810;4.098713;1.898572
2.820;4.094864;1.930444
2.830;4.090350;1.958854
2.840;4.085059;1.983227
2.850;4.078957;2.003443
2.860;4.072242;2.019923
2.870;4.065422;2.033534
2.880;4.059284;2.045359
2.890;4.054778;2.056375
2.900;4.052836;2.067179
2.910;4.054187;2.077850
2.920;4.059216;2.088039
2.930;4.067887;2.097218
2.940;4.079757;2.104966
2.950;4.094066;2.111139
2.960;4.109906;2.115846
2.970;4.126391;2.119294
2.980;4.142775;2.121628
2.990;4.158474;2.122861
3.000;4.173056;2.122931
3.010;4.186259;2.121811
3.020;4.198061;2.119566
3.030;4.208748;2.116331
3.040;4.218877;2.112287
3.050;4.229091;2.107680
3.060;4.239848;2.102903
3.070;4.251165;2.098512
3.080;4.262484;2.095145
3.090;4.272712;2.093324
3.100;4.280452;2.093277
3.110;4.284388;2.094865
3.120;4.283691;2.097635
3.130;4.278299;2.100983
3.140;4.268929;2.104336
3.150;4.256839;2.107316
3.160;4.243440;2.109850
3.170;4.229926;2.112218
3.180;4.217068;2.115007
3.190;4.205222;2.118991
3.200;4.194491;2.124973
3.210;4.184908;2.133643
3.220;4.176538;2.145475
3.230;4.169442;2.160644
3.240;4.163583;2.178988
3.250;4.158762;2.200014
3.260;4.154649;2.222961
3.270;4.150894;2.246939
3.280;4.147229;2.271125
3.290;4.143484;2.294935
3.300;4.139515;2.318079
3.310;4.135083;2.340471
3.320;4.129796;2.362037
3.330;4.123168;2.382557
3.340;4.114779;2.401638
3.350;4.104462;2.418830
3.360;4.092370;2.433827
3.370;4.078849;2.446593
3.380;4.064170;2.457350
3.390;4.048283;2.466412
3.400;4.030756;2.473976
3.410;4.010978;2.479946
3.420;3.988536;2.483862
3.430;3.963599;2.484995
3.440;3.937141;2.482592
3.450;3.910884;2.476180
3.460;3.886988;2.465778
3.470;3.867563;2.451902
3.480;3.854179;2.435397
3.490;3.847521;2.417219
3.500;3.847317;2.398303
3.510;3.852584;2.379512
3.520;3.862081;2.361633
3.530;3.874779;2.345346
3.540;3.890164;2.331161
3.550;3.908249;2.319354
3.560;3.929347;2.309939
3.570;3.953754;2.302720
3.580;3.981499;2.297413
3.590;4.012271;2.293769
3.600;4.045539;2.291651
3.610;4.080741;2.291028
3.620;4.117424;2.291903
3.630;4.155217;2.294227
3.640;4.193666;2.297859
3.650;4.232020;2.302586
3.660;4.269086;2.308199
3.670;4.303227;2.314555
3.680;4.332523;2.321563
3.690;4.355091;2.329104
3.700;4.369479;2.336910
3.710;4.375058;2.344476
3.720;4.372257;2.351084
3.730;4.362558;2.355961
3.740;4.348183;2.358531
3.750;4.331578;2.358640
3.760;4.314850;2.356624
3.770;4.299371;2.353183
3.780;4.285663;2.349097
3.790;4.273586;2.344938
3.800;4.262712;2.340914
3.810;4.252720;2.336916
3.820;4.243643;2.332707
3.830;4.235914;2.328095
3.840;4.230240;2.323019
3.850;4.227425;2.317496
3.860;4.228210;2.311518
3.870;4.233192;2.304975
3.880;4.242775;2.297660
3.890;4.257135;2.289324
3.900;4.276156;2.279747
3.910;4.299356;2.268810
3.920;4.325848;2.256580
3.930;4.354382;2.243380
3.940;4.383483;2.229798
3.950;4.411652;2.216578
3.960;4.437561;2.204396
3.970;4.460201;2.193616
3.980;4.478944;2.184132
3.990;4.493540;2.175383
4.000;4.504085;2.166517
4.010;4.510994;2.156625
4.020;4.514964;2.144966
4.030;4.516909;2.131163
4.040;4.517835;2.115330
4.050;4.518688;2.098052
4.060;4.520221;2.080189
4.070;4.522937;2.062555
4.080;4.527101;2.045623
4.090;4.532837;2.029370
4.100;4.540249;2.013313
4.110;4.549553;1.996690
4.120;4.561168;1.978703
4.130;4.575708;1.958740
4.140;4.593853;1.936557
4.150;4.616147;1.912415
4.160;4.642804;1.887107
4.170;4.673618;1.861860
4.180;4.708016;1.838085
4.190;4.745210;1.817058
4.200;4.784366;1.799641
4.210;4.824707;1.786123
4.220;4.865514;1.776254
4.230;4.906068;1.769451
4.240;4.945589;1.765077
4.250;4.983266;1.762677
4.260;5.018380;1.762044
4.270;5.050502;1.763132
4.280;5.079648;1.765859
4.290;5.106300;1.769926
4.300;5.131275;1.774715
4.310;5.155502;1.779341
4.320;5.179795;1.782837
4.330;5.204702;1.784400
4.340;5.230456;1.783597
4.350;5.257012;1.780454
4.360;5.284157;1.775422
4.370;5.311648;1.769231
4.380;5.339351;1.762674
4.390;5.367333;1.756394
4.400;5.395831;1.750747
4.410;5.425109;1.745772
4.420;5.455272;1.741231
4.430;5.486128;1.736674
4.440;5.517185;1.731493
4.450;5.547792;1.724976
4.460;5.577340;1.716395
4.470;5.605450;1.705168
4.480;5.632058;1.691072
4.490;5.657363;1.674418
4.500;5.681675;1.656065
4.510;5.705208;1.637229
4.520;5.727918;1.619123
4.530;5.749466;1.602570
4.540;5.769349;1.587741
4.550;5.787136;1.574142
4.560;5.802721;1.560828
4.570;5.816439;1.546788
4.580;5.828988;1.531354
4.590;5.841172;1.514474
4.600;5.853600;1.496756
4.610;5.866470;1.479246
4.620;5.879549;1.463041
4.630;5.892290;1.448869
4.640;5.904036;1.436810
4.650;5.914223;1.426268
4.660;5.922562;1.416187
4.670;5.929126;1.405416
4.680;5.934310;1.393074
4.690;5.938672;1.378799
4.700;5.942722;1.362808
4.710;5.946766;1.345792
4.720;5.950838;1.328674
4.730;5.954764;1.312343
4.740;5.958298;1.297450
4.750;5.961249;1.284333
4.760;5.963519;1.273051
4.770;5.965053;1.263499
4.780;5.965732;1.255524
4.790;5.965311;1.249038
4.800;5.963429;1.244070
4.810;5.959702;1.240759
4.820;5.953853;1.239258
4.830;5.945830;1.239590
4.840;5.935837;1.241524
4.850;5.924217;1.244540
4.860;5.911206;1.247916
4.870;5.896679;1.250892
4.880;5.880041;1.252851
4.890;5.860340;1.253475
4.900;5.836574;1.252816
4.910;5.808105;1.251282
4.920;5.775047;1.249518
4.930;5.738480;1.248195
4.940;5.700363;1.247768
4.950;5.663127;1.248283
4.960;5.629109;1.249304
4.970;5.600051;1.249991
4.980;5.576856;1.249303
4.990;5.559612;1.246278
5.000;5.547795;1.240289
5.010;5.540539;1.231206
5.020;5.536936;1.219378
5.030;5.536289;1.205416
5.040;5.538284;1.189822
5.050;5.543008;1.172651
5.060;5.550829;1.153373
5.070;5.562203;1.131032
5.080;5.577473;1.104628
5.090;5.596712;1.073569
5.100;5.619605;1.037948
5.110;5.645391;0.998525
5.120;5.672899;0.956414
5.130;5.700693;0.912639
5.140;5.727317;0.867810
5.150;5.751572;0.822026
5.160;5.772786;0.775024
5.170;5.790983;0.726424
5.180;5.806868;0.675957
5.190;5.821575;0.623630
5.200;5.836245;0.569814
5.210;5.851592;0.515239
5.220;5.867680;0.460895
5.230;5.883970;0.407834
5.240;5.899582;0.356969
5.250;5.913631;0.308918
5.260;5.925520;0.263946
5.270;5.935101;0.221967
5.280;5.942712;0.182577
5.290;5.949101;0.145131
5.300;5.955315;0.108896
5.310;5.962552;0.073256
5.320;5.972028;0.037925
5.330;5.984812;0.003073
5.340;6.001666;-0.030686
5.350;6.022923;-0.062470
5.360;6.048422;-0.091411
5.370;6.077539;-0.116953
5.380;6.109268;-0.139058
5.390;6.142349;-0.158197
5.400;6.175423;-0.175132
5.410;6.207217;-0.190552
5.420;6.236710;-0.204753
5.430;6.263243;-0.217513
5.440;6.286572;-0.228214
5.450;6.306880;-0.236124
5.460;6.324706;-0.240670
5.470;6.340769;-0.241574
5.480;6.355696;-0.238836
5.490;6.369753;-0.232632
5.500;6.382701;-0.223214
5.510;6.393823;-0.210844
5.520;6.402124;-0.195738
5.530;6.406623;-0.178014
5.540;6.406642;-0.157625
5.550;6.402029;-0.134307
5.560;6.393251;-0.107606
5.570;6.381310;-0.076982
5.580;6.367507;-0.041961
5.590;6.353072;-0.002264
5.600;6.338802;0.042126
5.610;6.324816;0.090965
5.620;6.310501;0.143777
5.630;6.294693;0.199857
5.640;6.276035;0.258238
5.650;6.253403;0.317679
5.660;6.226249;0.376773
5.670;6.194735;0.434227
5.680;6.159617;0.489249
5.690;6.121933;0.541842
5.700;6.082608;0.592860
5.710;6.042133;0.643744
5.720;6.000451;0.696038
5.730;5.957119;0.750846
5.740;5.911656;0.808431
5.750;5.863939;0.868097
5.760;5.814480;0.928369
5.770;5.764478;0.987423
5.780;5.715604;1.043597
5.790;5.669622;1.095832
5.800;5.627962;1.143901
5.810;5.591431;1.188349
5.820;5.560120;1.230190
5.830;5.533541;1.270474
5.840;5.510897;1.309906
5.850;5.491358;1.348647
5.860;5.474244;1.386380
5.870;5.459082;1.422578
5.880;5.445579;1.456811
5.890;5.433568;1.488929
5.900;5.422958;1.519037
5.910;5.413703;1.547343
5.920;5.405760;1.573983
5.930;5.399054;1.598933
5.940;5.393423;1.622022
5.950;5.388591;1.643027
5.960;5.384174;1.661789
5.970;5.379757;1.678284
5.980;5.375020;1.692611
5.990;5.369857;1.704937
6.000;5.364394;1.715427
6.010;5.358907;1.724218
6.020;5.353677;1.731460
6.030;5.348857;1.737378
6.040;5.344423;1.742333
6.050;5.340197;1.746829
6.060;5.335916;1.751455
6.070;5.331353;1.756803
6.080;5.326446;1.763398
6.090;5.321407;1.771667
6.100;5.316754;1.781938
6.110;5.313213;1.794426
6.120;5.311555;1.809162
6.130;5.312428;1.825882
6.140;5.316244;1.843955
6.150;5.323106;1.862439
6.160;5.332769;1.880272
6.170;5.344643;1.896542
6.180;5.357879;1.910694
6.190;5.371546;1.922587
6.200;5.384806;1.932400
6.210;5.397023;1.940483
6.220;5.407748;1.947235
6.230;5.416637;1.953019
6.240;5.423391;1.958097
6.250;5.427788;1.962555
6.260;5.429770;1.966269
6.270;5.429502;1.968953
6.280;5.427309;1.970265
6.290;5.423501;1.969948
6.300;5.418206;1.967929
6.310;5.411316;1.964396
6.320;5.402575;1.959798
6.330;5.391767;1.954819
6.340;5.378888;1.950287
6.350;5.364250;1.947027
6.360;5.348459;1.945654
6.370;5.332292;1.946347
6.380;5.316463;1.948699
6.390;5.301341;1.951752
6.400;5.286715;1.954222
6.410;5.271713;1.954850
6.420;5.254944;1.952753
6.430;5.234841;1.947645
6.440;5.210106;1.939894
6.450;5.180135;1.930407
6.460;5.145253;1.920369
6.470;5.106703;1.910923
6.480;5.066360;1.902881
6.490;5.026263;1.896568
6.500;4.988146;1.891841
6.510;4.953073;1.888263
6.520;4.921307;1.885328
6.530;4.892422;1.882639
6.540;4.865602;1.879960
6.550;4.840025;1.877188
6.560;4.815185;1.874352
6.570;4.791078;1.871653
6.580;4.768227;1.869527
6.590;4.747565;1.868598
6.600;4.730277;1.869467
6.610;4.717643;1.872406
6.620;4.710943;1.877117
6.630;4.711408;1.882712
6.640;4.720150;1.887905
6.650;4.738036;1.891348
6.660;4.765459;1.891988
6.670;4.802062;1.889386
6.680;4.846557;1.883904
6.690;4.896730;1.876691
6.700;4.949721;1.869423
6.710;5.002486;1.863866
6.720;5.052320;1.861412
6.730;5.097310;1.862755
6.740;5.136594;1.867776
6.750;5.170354;1.875647
6.760;5.199528;1.885087
6.770;5.225330;1.894670
6.780;5.248742;1.903095
6.790;5.270158;1.909360
6.800;5.289288;1.912836
6.810;5.305309;1.913262
6.820;5.317181;1.910704
6.830;5.324034;1.905525
6.840;5.325494;1.898351
6.850;5.321880;1.890025
6.860;5.314183;1.881520
6.870;5.303827;1.873804
6.880;5.292315;1.867700
6.890;5.280882;1.863756
6.900;5.270283;1.862171
6.910;5.260773;1.862791
6.920;5.252222;1.865206
6.930;5.244285;1.868910
6.940;5.236563;1.873461
6.950;5.228707;1.878594
6.960;5.220462;1.884229
6.970;5.211674;1.890426
6.980;5.202268;1.897290
6.990;5.192225;1.904900
7.000;5.181565;1.913263
7.010;5.170357;1.922330
7.020;5.158714;1.932065
7.030;5.146798;1.942524
7.040;5.134793;1.953880
7.050;5.122871;1.966358
7.060;5.111168;1.980098
7.070;5.099786;1.995028
7.080;5.088814;2.010798
7.090;5.078350;2.026843
7.100;5.068514;2.042522
7.110;5.059462;2.057317
7.120;5.051383;2.070999
7.130;5.044450;2.083708
7.140;5.038742;2.095895
7.150;5.034150;2.108163
7.160;5.030345;2.121072
7.170;5.026814;2.134973
7.180;5.022960;2.149936
7.190;5.018232;2.165763
7.200;5.012251;2.182079
7.210;5.004894;2.198450
7.220;4.996311;2.214484
7.230;4.986847;2.229888
7.240;4.976912;2.244475
7.250;4.966833;2.258133
7.260;4.956750;2.270785
7.270;4.946596;2.282356
7.280;4.936177;2.292768
7.290;4.925325;2.301966
7.300;4.914047;2.309953
7.310;4.902589;2.316827
7.320;4.891389;2.322784
7.330;4.880964;2.328090
7.340;4.871787;2.333032
7.350;4.864204;2.337855
7.360;4.858395;2.342698
7.370;4.854377;2.347555
7.380;4.852046;2.352293
7.390;4.851226;2.356736
7.400;4.851739;2.360779
7.410;4.853440;2.364469
7.420;4.856248;2.368009
7.430;4.860166;2.371698
7.440;4.865300;2.375882
7.450;4.871856;2.380919
7.460;4.880098;2.387163
7.470;4.890246;2.394945
7.480;4.902344;2.404503
7.490;4.916204;2.415900
7.500;4.931456;2.428934
7.510;4.947721;2.443113
7.520;4.964780;2.457768
7.530;4.982656;2.472286
7.540;5.001529;2.486377
7.550;5.021526;2.500215
7.560;5.042491;2.514406
7.570;5.063853;2.529791
7.580;5.084681;2.547166
7.590;5.103894;2.567022
7.600;5.120547;2.589366
7.610;5.134073;2.613718
7.620;5.144405;2.639264
7.630;5.151940;2.665115
7.640;5.157347;2.690575
7.650;5.161282;2.715317
7.660;5.164139;2.739398
7.670;5.165932;2.763082
7.680;5.166331;2.786561
7.690;5.164815;2.809727
7.700;5.160841;2.832117
7.710;5.154007;2.853052
7.720;5.144176;2.871859
7.730;5.131547;2.888049
7.740;5.116639;2.901372
7.750;5.100173;2.911777
7.760;5.082866;2.919355
7.770;5.065214;2.924316
7.780;5.047367;2.926993
7.790;5.029157;2.927798
7.800;5.010272;2.927113
7.810;4.990465;2.925161
7.820;4.969688;2.921915
7.830;4.948063;2.917123
7.840;4.925728;2.910415
7.850;4.902654;2.901440
7.860;4.878529;2.889948
7.870;4.852790;2.875758
7.880;4.824831;2.858651
7.890;4.794320;2.838259
7.900;4.761523;2.814063
7.910;4.727451;2.785544
7.920;4.693754;2.752439
7.930;4.662353;2.715032
7.940;4.634927;2.674317
7.950;4.612438;2.631987
7.960;4.594865;2.590171
7.970;4.581267;2.551005
7.980;4.570138;2.516147
7.990;4.559958;2.486408
8.000;4.549694;2.461655
8.010;4.539073;2.441023
8.020;4.528531;2.423336
8.030;4.518924;2.407548
8.040;4.511168;2.393000
8.050;4.505967;2.379461
8.060;4.503706;2.367002
8.070;4.504460;2.355807
8.080;4.508066;2.346015
8.090;4.514156;2.337655
8.100;4.522174;2.330646
8.110;4.531393;2.324830
8.120;4.540988;2.319985
8.130;4.550150;2.315787
8.140;4.558212;2.311776
8.150;4.564740;2.307342
8.160;4.569562;2.301787
8.170;4.572733;2.294426
8.180;4.574427;2.284739
8.190;4.574813;2.272522
8.200;4.573946;2.257997
8.210;4.571708;2.241818
8.220;4.567809;2.224945
8.230;4.561881;2.208405
8.240;4.553629;2.192990
8.250;4.543007;2.179034
8.260;4.530304;2.166359
8.270;4.516095;2.154426
8.280;4.501070;2.142602
8.290;4.485822;2.130398
