Time[s];COPx[cm];COPy[cm]
0.010;-1.253131;-1.078400
0.020;-1.248784;-1.070775
0.030;-1.243510;-1.062343
0.040;-1.236466;-1.052465
0.050;-1.226986;-1.040774
0.060;-1.214710;-1.027269
0.070;-1.199705;-1.012341
0.080;-1.182512;-0.996709
0.090;-1.164083;-0.981264
0.100;-1.145615;-0.966837
0.110;-1.128320;-0.953975
0.120;-1.113211;-0.942816
0.130;-1.100951;-0.933122
0.140;-1.091797;-0.924482
0.150;-1.085667;-0.916581
0.160;-1.082254;-0.909399
0.170;-1.081185;-0.903227
0.180;-1.082136;-0.898494
0.190;-1.084902;-0.895537
0.200;-1.089401;-0.894423
0.210;-1.095626;-0.894898
0.220;-1.103584;-0.896473
0.230;-1.113275;-0.898587
0.240;-1.124699;-0.900803
0.250;-1.137876;-0.902948
0.260;-1.152836;-0.905136
0.270;-1.169589;-0.907672
0.280;-1.188079;-0.910891
0.290;-1.208143;-0.915001
0.300;-1.229473;-0.919985
0.310;-1.251613;-0.925573
0.320;-1.274000;-0.931290
0.330;-1.296067;-0.936578
0.340;-1.317361;-0.940956
0.350;-1.337601;-0.944204
0.360;-1.356633;-0.946505
0.370;-1.374321;-0.948453
0.380;-1.390471;-0.950880
0.390;-1.404836;-0.954545
0.400;-1.417229;-0.959842
0.410;-1.427642;-0.966664
0.420;-1.436284;-0.974457
0.430;-1.443506;-0.982411
0.440;-1.449635;-0.989679
0.450;-1.454858;-0.995595
0.460;-1.459204;-0.999797
0.470;-1.462666;-1.002260
0.480;-1.465358;-1.003216
0.490;-1.467601;-1.003046
0.500;-1.469876;-1.002168
0.510;-1.472679;-1.000969
0.520;-1.476354;-0.999752
0.530;-1.480998;-0.998716
0.540;-1.486462;-0.997958
0.550;-1.492436;-0.997489
0.560;-1.498576;-0.997249
0.570;-1.504617;-0.997123
0.580;-1.510449;-0.996975
0.590;-1.516119;-0.996693
0.600;-1.521751;-0.996257
0.610;-1.527451;-0.995762
0.620;-1.533253;-0.995415
0.630;-1.539137;-0.995457
0.640;-1.545126;-0.996070
0.650;-1.551384;-0.997319
0.660;-1.558238;-0.999184
0.670;-1.566091;-1.001684
0.680;-1.575240;-1.004986
0.690;-1.585707;-1.009416
0.700;-1.597175;-1.015329
0.710;-1.609073;-1.022895
0.720;-1.620774;-1.031945
0.730;-1.631831;-1.041924
0.740;-1.642120;-1.051984
0.750;-1.651821;-1.061169
0.760;-1.661239;-1.068619
0.770;-1.670536;-1.073739
0.780;-1.679522;-1.076306
0.790;-1.687603;-1.076479
0.800;-1.693944;-1.074749
0.810;-1.697757;-1.071828
0.820;-1.698617;-1.068497
0.830;-1.696642;-1.065441
0.840;-1.692483;-1.063102
0.850;-1.687133;-1.061595
0.860;-1.681669;-1.060714
0.870;-1.676986;-1.060010
0.880;-1.673616;-1.058907
0.890;-1.671627;-1.056793
0.900;-1.670615;-1.053091
0.910;-1.669840;-1.047312
0.920;-1.668476;-1.039112
0.930;-1.665915;-1.028369
0.940;-1.661984;-1.015253
0.950;-1.656981;-1.000235
0.960;-1.651540;-0.984008
0.970;-1.646413;-0.967300
0.980;-1.642225;-0.950652
0.990;-1.639299;-0.934251
1.000;-1.637569;-0.917880
1.010;-1.636588;-0.900998
1.020;-1.635627;-0.882931
1.030;-1.633861;-0.863104
1.040;-1.630586;-0.841273
1.050;-1.625398;-0.817652
1.060;-1.618244;-0.792892
1.070;-1.609332;-0.767904
1.080;-1.598945;-0.743590
1.090;-1.587269;-0.720614
1.100;-1.574340;-0.699281
1.110;-1.560111;-0.679569
1.120;-1.544578;-0.661308
1.130;-1.527867;-0.644418
1.140;-1.510250;-0.629077
1.150;-1.492074;-0.615718
1.160;-1.473672;-0.604861
1.170;-1.455307;-0.596873
1.180;-1.437195;-0.591790
1.190;-1.419568;-0.589247
1.200;-1.402723;-0.588531
1.210;-1.386972;-0.588731
1.220;-1.372539;-0.588973
1.230;-1.359438;-0.588670
1.240;-1.347475;-0.587706
1.250;-1.336352;-0.586455
1.260;-1.325856;-0.585606
1.270;-1.315976;-0.585821
1.280;-1.306897;-0.587368
1.290;-1.298864;-0.589906
1.300;-1.291993;-0.592514
1.310;-1.286171;-0.593996
1.320;-1.281067;-0.593272
1.330;-1.276224;-0.589713
1.340;-1.271144;-0.583252
1.350;-1.265324;-0.574271
1.360;-1.258272;-0.563374
1.370;-1.249549;-0.551143
1.380;-1.238862;-0.538002
1.390;-1.226191;-0.524186
1.400;-1.211864;-0.509793
1.410;-1.196517;-0.494843
1.420;-1.180912;-0.479324
1.430;-1.165657;-0.463212
1.440;-1.150965;-0.446441
1.450;-1.136564;-0.428844
1.460;-1.121812;-0.410108
1.470;-1.105976;-0.389809
1.480;-1.088516;-0.367561
1.490;-1.069283;-0.343219
1.500;-1.048520;-0.317038
1.510;-1.026725;-0.289687
1.520;-1.004429;-0.262078
1.530;-0.982038;-0.235072
1.540;-0.959820;-0.209201
1.550;-0.938022;-0.184559
1.560;-0.917029;-0.160906
1.570;-0.897431;-0.137902
1.580;-0.879930;-0.115328
1.590;-0.865114;-0.093172
1.600;-0.853216;-0.071563
1.610;-0.844000;-0.050621
1.620;-0.836842;-0.030331
1.630;-0.830952;-0.010511
1.640;-0.825641;0.009120
1.650;-0.820496;0.028841
1.660;-0.815403;0.048842
1.670;-0.810468;0.069205
1.680;-0.805860;0.089925
1.690;-0.801684;0.110959
1.700;-0.797920;0.132268
1.710;-0.794433;0.153860
1.720;-0.791019;0.175779
1.730;-0.787444;0.198052
1.740;-0.783456;0.220600
1.750;-0.778795;0.243161
1.760;-0.773220;0.265254
1.770;-0.766556;0.286219
1.780;-0.758739;0.305312
1.790;-0.749813;0.321856
1.800;-0.739867;0.335413
1.810;-0.728953;0.345907
1.820;-0.717025;0.353673
1.830;-0.703917;0.359415
1.840;-0.689338;0.364074
1.850;-0.672874;0.368659
1.860;-0.654028;0.374054
1.870;-0.632335;0.380860
1.880;-0.607514;0.389288
1.890;-0.579592;0.399135
1.900;-0.548909;0.409839
1.910;-0.516013;0.420601
1.920;-0.481532;0.430543
1.930;-0.446071;0.438871
1.940;-0.410177;0.444955
1.950;-0.374325;0.448339
1.960;-0.338891;0.448697
1.970;-0.304115;0.445815
1.980;-0.270076;0.439603
1.990;-0.236727;0.430133
2.000;-0.203976;0.417661
2.010;-0.171794;0.402601
2.020;-0.140259;0.385463
2.030;-0.109558;0.366762
2.040;-0.079939;0.346940
2.050;-0.051642;0.326290
2.060;-0.024842;0.304916
2.070;0.000421;0.282736
2.080;0.024277;0.259545
2.090;0.047030;0.235116
2.100;0.069108;0.209334
2.110;0.090960;0.182325
2.120;0.112959;0.154561
2.130;0.135315;0.126923
2.140;0.158031;0.100658
2.150;0.180922;0.077180
2.160;0.203680;0.057753
2.170;0.225958;0.043170
2.180;0.247435;0.033573
2.190;0.267846;0.028483
2.200;0.286988;0.027011
2.210;0.304726;0.028141
2.220;0.320987;0.030960
2.230;0.335742;0.034763
2.240;0.349002;0.039006
2.250;0.360835;0.043178
2.260;0.371399;0.046674
2.270;0.380936;0.048750
2.280;0.389705;0.048594
2.290;0.397889;0.045476
2.300;0.405533;0.038943
2.310;0.412555;0.029009
2.320;0.418818;0.016268
2.330;0.424213;0.001825
2.340;0.428725;-0.012976
2.350;0.432450;-0.026941
2.360;0.435585;-0.039352
2.370;0.438390;-0.050098
2.380;0.441139;-0.059550
2.390;0.444042;-0.068310
2.400;0.447159;-0.076939
2.410;0.450340;-0.085804
2.420;0.453255;-0.095056
2.430;0.455496;-0.104718
2.440;0.456746;-0.114808
2.450;0.456922;-0.125453
2.460;0.456248;-0.136893
2.470;0.455179;-0.149371
2.480;0.454209;-0.162936
2.490;0.453637;-0.177288
2.500;0.453408;-0.191743
2.510;0.453098;-0.205368
2.520;0.452047;-0.217236
2.530;0.449573;-0.226695
2.540;0.445172;-0.233549
2.550;0.438631;-0.238087
2.560;0.430031;-0.240948
2.570;0.419639;-0.242887
2.580;0.407761;-0.244532
2.590;0.394615;-0.246228
2.600;0.380294;-0.248004
2.610;0.364816;-0.249632
2.620;0.348196;-0.250725
2.630;0.330506;-0.250808
2.640;0.311879;-0.249350
2.650;0.292489;-0.245805
2.660;0.272540;-0.239667
2.670;0.252279;-0.230583
2.680;0.232014;-0.218499
2.690;0.212114;-0.203769
2.700;0.192989;-0.187134
2.710;0.175038;-0.169563
2.720;0.158579;-0.151957
2.730;0.143781;-0.134873
2.740;0.130631;-0.118388
2.750;0.118945;-0.102178
2.760;0.108426;-0.085760
2.770;0.098761;-0.068750
2.780;0.089726;-0.051028
2.790;0.081261;-0.032738
2.800;0.073464;-0.014136
2.810;0.066501;0.004609
2.820;0.060454;0.023516
2.830;0.055179;0.042727
2.840;0.050219;0.062325
2.850;0.044816;0.082212
2.860;0.038035;0.102153
2.870;0.028941;0.121950
2.880;0.016812;0.141596
2.890;0.001319;0.161250
2.900;-0.017363;0.181022
2.910;-0.038541;0.200704
2.920;-0.061116;0.219664
2.930;-0.083844;0.237002
2.940;-0.105641;0.251935
2.950;-0.125845;0.264185
2.960;-0.144313;0.274186
2.970;-0.161299;0.282986
2.980;-0.177199;0.291881
2.990;-0.192258;0.301962
3.000;-0.206391;0.313756
3.010;-0.219188;0.327125
3.020;-0.230090;0.341406
3.030;-0.238639;0.355701
3.040;-0.244693;0.369169
3.050;-0.248503;0.381197
3.060;-0.250649;0.391415
3.070;-0.251858;0.399627
3.080;-0.252803;0.405723
3.090;-0.253958;0.409663
3.100;-0.255532;0.411508
3.110;-0.257502;0.411470
3.120;-0.259687;0.409900
3.130;-0.261858;0.407212
3.140;-0.263863;0.403735
3.150;-0.265728;0.399611
3.160;-0.267690;0.394794
3.170;-0.270158;0.389143
3.180;-0.273607;0.382548
3.190;-0.278426;0.374975
3.200;-0.284794;0.366418
3.210;-0.292613;0.356804
3.220;-0.301540;0.345948
3.230;-0.311091;0.333644
3.240;-0.320794;0.319860
3.250;-0.330328;0.304948
3.260;-0.339588;0.289723
3.270;-0.348656;0.275344
3.280;-0.357682;0.263029
3.290;-0.366776;0.253716
3.300;-0.375948;0.247813
3.310;-0.385124;0.245144
3.320;-0.394200;0.245096
3.330;-0.403083;0.246886
3.340;-0.411693;0.249794
3.350;-0.419948;0.253308
3.360;-0.427740;0.257179
3.370;-0.434926;0.261425
3.380;-0.441352;0.266330
3.390;-0.446889;0.272384
3.400;-0.451483;0.280136
3.410;-0.455195;0.289964
3.420;-0.458230;0.301871
3.430;-0.460921;0.315410
3.440;-0.463674;0.329802
3.450;-0.466879;0.344193
3.460;-0.470839;0.357961
3.470;-0.475708;0.370922
3.480;-0.481459;0.383356
3.490;-0.487899;0.395848
3.500;-0.494705;0.409027
3.510;-0.501517;0.423313
3.520;-0.508039;0.438795
3.530;-0.514119;0.455278
3.540;-0.519776;0.472461
3.550;-0.525152;0.490140
3.560;-0.530453;0.508328
3.570;-0.535889;0.527201
3.580;-0.541674;0.546932
3.590;-0.548048;0.567483
3.600;-0.555301;0.588497
3.610;-0.563745;0.609326
3.620;-0.573636;0.629224
3.630;-0.585080;0.647611
3.640;-0.597986;0.664317
3.650;-0.612082;0.679672
3.660;-0.626988;0.694374
3.670;-0.642297;0.709201
3.680;-0.657660;0.724703
3.690;-0.672878;0.741008
3.700;-0.687999;0.757828
3.710;-0.703367;0.774626
3.720;-0.719595;0.790849
3.730;-0.737434;0.806140
3.740;-0.757569;0.820453
3.750;-0.780420;0.834035
3.760;-0.806001;0.847275
3.770;-0.833890;0.860468
3.780;-0.863322;0.873594
3.790;-0.893356;0.886181
3.800;-0.923060;0.897312
3.810;-0.951656;0.905806
3.820;-0.978582;0.910522
3.830;-1.003502;0.910700
3.840;-1.026302;0.906209
3.850;-1.047106;0.897610
3.860;-1.066295;0.886003
3.870;-1.084497;0.872703
3.880;-1.102514;0.858882
3.890;-1.121192;0.845311
3.900;-1.141268;0.832296
3.910;-1.163250;0.819769
3.920;-1.187356;0.807464
3.930;-1.213523;0.795076
3.940;-1.241467;0.782369
3.950;-1.270751;0.769230
3.960;-1.300814;0.755680
3.970;-1.330977;0.741830
3.980;-1.360463;0.727783
3.990;-1.388496;0.713518
4.000;-1.414438;0.698847
4.010;-1.437909;0.683516
4.020;-1.458802;0.667390
4.030;-1.477205;0.650613
4.040;-1.493273;0.633601
4.050;-1.507151;0.616898
4.060;-1.518976;0.600981
4.070;-1.528926;0.586130
4.080;-1.537290;0.572418
4.090;-1.544480;0.559775
4.100;-1.550981;0.548053
4.110;-1.557252;0.537066
4.120;-1.563619;0.526580
4.130;-1.570238;0.516281
4.140;-1.577131;0.505745
4.150;-1.584278;0.494449
4.160;-1.591754;0.481878
4.170;-1.599853;0.467689
4.180;-1.609188;0.451849
4.190;-1.620720;0.434653
4.200;-1.635656;0.416612
4.210;-1.655212;0.398265
4.220;-1.680259;0.380044
4.230;-1.710981;0.362234
4.240;-1.746689;0.345024
4.250;-1.785870;0.328601
4.260;-1.826476;0.313213
4.270;-1.866342;0.299148
4.280;-1.903614;0.286681
4.290;-1.937051;0.276004
4.300;-1.966157;0.267210
4.310;-1.991122;0.260330
4.320;-2.012651;0.255400
4.330;-2.031739;0.252531
4.340;-2.049440;0.251927
4.350;-2.066640;0.253817
4.360;-2.083858;0.258331
4.370;-2.101140;0.265335
4.380;-2.118117;0.274337
4.390;-2.134242;0.284530
4.400;-2.149123;0.295012
4.410;-2.162808;0.305088
4.420;-2.175889;0.314501
4.430;-2.189380;0.323448
4.440;-2.204409;0.332365
4.450;-2.221837;0.341630
4.460;-2.241915;0.351333
4.470;-2.264095;0.361232
4.480;-2.287104;0.370848
4.490;-2.309251;0.379661
4.500;-2.328897;0.387299
4.510;-2.344898;0.393695
4.520;-2.356866;0.399136
4.530;-2.365192;0.404211
4.540;-2.370835;0.409683
4.550;-2.375010;0.416337
4.560;-2.378877;0.424854
4.570;-2.383341;0.435684
4.580;-2.388981;0.448946
4.590;-2.396067;0.464367
4.600;-2.404601;0.481310
4.610;-2.414352;0.498902
4.620;-2.424864;0.516233
4.630;-2.435497;0.532589
4.640;-2.445507;0.547647
4.650;-2.454146;0.561583
4.660;-2.460758;0.575024
4.670;-2.464818;0.588815
4.680;-2.465940;0.603690
4.690;-2.463910;0.619972
4.700;-2.458754;0.637432
4.710;-2.450826;0.655370
4.720;-2.440824;0.672851
4.730;-2.429698;0.688981
4.740;-2.418460;0.703112
4.750;-2.407945;0.714902
4.760;-2.398564;0.724225
4.770;-2.390094;0.731001
4.780;-2.381588;0.735036
4.790;-2.371522;0.735996
4.800;-2.358235;0.733539
4.810;-2.340548;0.727539
4.820;-2.318317;0.718290
4.830;-2.292652;0.706574
4.840;-2.265697;0.693570
4.850;-2.240044;0.680653
4.860;-2.218035;0.669144
4.870;-2.201203;0.660069
4.880;-2.190037;0.653975
4.890;-2.184080;0.650849
4.900;-2.182246;0.650175
4.910;-2.183214;0.651148
4.920;-2.185789;0.652976
4.930;-2.189174;0.655145
4.940;-2.193089;0.657521
4.950;-2.197743;0.660272
4.960;-2.203663;0.663685
4.970;-2.211466;0.668020
4.980;-2.221640;0.673462
4.990;-2.234384;0.680161
5.000;-2.249526;0.688301
5.010;-2.266542;0.698145
5.020;-2.284674;0.710012
5.030;-2.303128;0.724199
5.040;-2.321268;0.740887
5.050;-2.338709;0.760076
5.060;-2.355267;0.781601
5.070;-2.370787;0.805230
5.080;-2.384967;0.830779
5.090;-2.397257;0.858212
5.100;-2.406909;0.887675
5.110;-2.413134;0.919486
5.120;-2.415306;0.954050
5.130;-2.413101;0.991728
5.140;-2.406486;1.032654
5.150;-2.395585;1.076601
5.160;-2.380503;1.122955
5.170;-2.361227;1.170843
5.180;-2.337633;1.219356
5.190;-2.309592;1.267768
5.200;-2.277097;1.315643
5.210;-2.240360;1.362808
5.220;-2.199847;1.409220
5.230;-2.156229;1.454807
5.240;-2.110247;1.499351
5.250;-2.062547;1.542480
5.260;-2.013536;1.583755
5.270;-1.963368;1.622820
5.280;-1.912069;1.659523
5.290;-1.859736;1.693941
5.300;-1.806710;1.726287
5.310;-1.753636;1.756733
5.320;-1.701424;1.785283
5.330;-1.651129;1.811719
5.340;-1.603806;1.835640
5.350;-1.560357;1.856532
5.360;-1.521378;1.873853
5.370;-1.487036;1.887123
5.380;-1.456993;1.896014
5.390;-1.430461;1.900408
5.400;-1.406349;1.900437
5.410;-1.383457;1.896474
5.420;-1.360618;1.889095
5.430;-1.336797;1.879003
5.440;-1.311196;1.866965
5.450;-1.283390;1.853780
5.460;-1.253461;1.840256
5.470;-1.221982;1.827150
5.480;-1.189792;1.815016
5.490;-1.157625;1.803994
5.500;-1.125769;1.793611
5.510;-1.093906;1.782712
5.520;-1.061223;1.769615
5.530;-1.026728;1.752475
5.540;-0.989654;1.729743
5.550;-0.949789;1.700580
5.560;-0.907651;1.665080
5.570;-0.864458;1.624278
5.580;-0.821943;1.579950
5.590;-0.782056;1.534251
5.600;-0.746624;1.489279
5.610;-0.717051;1.446638
5.620;-0.694133;1.407115
5.630;-0.678042;1.370568
5.640;-0.668481;1.336082
5.650;-0.664928;1.302349
5.660;-0.666866;1.268104
5.670;-0.673926;1.232476
5.680;-0.685935;1.195133
5.690;-0.702915;1.156217
5.700;-0.725077;1.116148
5.710;-0.752791;1.075384
5.720;-0.786522;1.034222
5.730;-0.826702;0.992673
5.740;-0.873597;0.950468
5.750;-0.927244;0.907223
5.760;-0.987460;0.862677
5.770;-1.053888;0.816890
5.780;-1.126003;0.770274
5.790;-1.203041;0.723458
5.800;-1.283892;0.677057
5.810;-1.367006;0.631480
5.820;-1.450424;0.586849
5.830;-1.531975;0.543063
5.840;-1.609647;0.499948
5.850;-1.682030;0.457406
5.860;-1.748643;0.415492
5.870;-1.810002;0.374423
5.880;-1.867385;0.334543
5.890;-1.922375;0.296265
5.900;-1.976356;0.260022
5.910;-2.030102;0.226211
5.920;-2.083564;0.195158
5.930;-2.135922;0.167109
5.940;-2.185898;0.142266
5.950;-2.232238;0.120863
5.960;-2.274211;0.103216
5.970;-2.311895;0.089650
5.980;-2.346135;0.080306
5.990;-2.378182;0.074878
6.000;-2.409181;0.072419
6.010;-2.439709;0.071351
6.020;-2.469555;0.069731
6.030;-2.497809;0.065724
6.040;-2.523220;0.058113
6.050;-2.544644;0.046629
6.060;-2.561360;0.031975
6.070;-2.573142;0.015534
6.080;-2.580106;-0.001085
6.090;-2.582521;-0.016493
6.100;-2.580714;-0.029831
6.110;-2.575148;-0.040906
6.120;-2.566552;-0.050142
6.130;-2.555989;-0.058412
6.140;-2.544776;-0.066783
6.150;-2.534257;-0.076257
6.160;-2.525539;-0.087557
6.170;-2.519280;-0.101014
6.180;-2.515606;-0.116584
6.190;-2.514168;-0.133933
6.200;-2.514337;-0.152552
6.210;-2.515461;-0.171813
6.220;-2.517125;-0.190999
6.230;-2.519304;-0.209336
6.240;-2.522339;-0.226075
6.250;-2.526752;-0.240642
6.260;-2.532971;-0.252783
6.270;-2.541080;-0.262649
6.280;-2.550706;-0.270767
6.290;-2.561036;-0.277892
6.300;-2.570942;-0.284805
6.310;-2.579165;-0.292123
6.320;-2.584518;-0.300222
6.330;-2.586111;-0.309287
6.340;-2.583546;-0.319444
6.350;-2.577039;-0.330880
6.360;-2.567414;-0.343873
6.370;-2.555920;-0.358752
6.380;-2.543912;-0.375838
6.390;-2.532473;-0.395411
6.400;-2.522093;-0.417698
6.410;-2.512531;-0.442855
6.420;-2.502903;-0.470904
6.430;-2.491917;-0.501686
6.440;-2.478138;-0.534818
6.450;-2.460176;-0.569691
6.460;-2.436804;-0.605469
6.470;-2.407090;-0.641088
6.480;-2.370617;-0.675301
6.490;-2.327741;-0.706819
6.500;-2.279751;-0.734551
6.510;-2.228762;-0.757867
6.520;-2.177323;-0.776747
6.530;-2.127841;-0.791745
6.540;-2.082067;-0.803751
6.550;-2.040824;-0.813632
6.560;-2.004008;-0.821922
6.570;-1.970762;-0.828672
6.580;-1.939668;-0.833514
6.590;-1.908915;-0.835879
6.600;-1.876511;-0.835270
6.610;-1.840647;-0.831483
6.620;-1.800168;-0.824704
6.630;-1.754965;-0.815499
6.640;-1.706046;-0.804693
6.650;-1.655201;-0.793194
6.660;-1.604364;-0.781786
6.670;-1.554959;-0.770926
6.680;-1.507503;-0.760623
6.690;-1.461571;-0.750442
6.700;-1.416063;-0.739643
6.710;-1.369619;-0.727434
6.720;-1.321024;-0.713214
6.730;-1.269509;-0.696736
6.740;-1.214898;-0.678097
6.750;-1.157592;-0.657558
6.760;-1.098430;-0.635252
6.770;-1.038466;-0.610889
6.780;-0.978697;-0.583612
6.790;-0.919820;-0.552121
6.800;-0.862083;-0.515056
6.810;-0.805328;-0.471507
6.820;-0.749184;-0.421400
6.830;-0.693307;-0.365604
6.840;-0.637539;-0.305727
6.850;-0.581921;-0.243710
6.860;-0.526621;-0.181389
6.870;-0.471862;-0.120139
6.880;-0.417921;-0.060696
6.890;-0.365220;-0.003187
6.900;-0.314422;0.052673
6.910;-0.266427;0.107309
6.920;-0.222255;0.161072
6.930;-0.182830;0.214124
6.940;-0.148789;0.266418
6.950;-0.120369;0.317744
6.960;-0.097423;0.367804
6.970;-0.079536;0.416299
6.980;-0.066232;0.462998
6.990;-0.057224;0.507728
7.000;-0.052633;0.550321
7.010;-0.053056;0.590567
7.020;-0.059433;0.628238
7.030;-0.072742;0.663206
7.040;-0.093665;0.695604
7.050;-0.122368;0.725944
7.060;-0.158510;0.755115
7.070;-0.201478;0.784221
7.080;-0.250750;0.814288
7.090;-0.306206;0.845953
7.100;-0.368237;0.879225
7.110;-0.437552;0.913434
7.120;-0.514741;0.947373
7.130;-0.599763;0.979615
7.140;-0.691533;1.008916
7.150;-0.787786;1.034577
7.160;-0.885286;1.056611
7.170;-0.980374;1.075667
7.180;-1.069723;1.092728
7.190;-1.151051;1.108734
7.200;-1.223524;1.124297
7.210;-1.287707;1.139580
7.220;-1.345083;1.154362
7.230;-1.397342;1.168211
7.240;-1.445709;1.180702
7.250;-1.490545;1.191596
7.260;-1.531362;1.200903
7.270;-1.567194;1.208805
7.280;-1.597121;1.215502
7.290;-1.620718;1.221039
7.300;-1.638241;1.225210
7.310;-1.650553;1.227540
7.320;-1.658867;1.227346
7.330;-1.664450;1.223870
7.340;-1.668368;1.216448
7.350;-1.671318;1.204655
7.360;-1.673543;1.188378
7.370;-1.674822;1.167766
7.380;-1.674553;1.143103
7.390;-1.671952;1.114667
7.400;-1.666368;1.082672
7.410;-1.657610;1.047308
7.420;-1.646148;1.008851
7.430;-1.633028;0.967746
7.440;-1.619517;0.924597
7.450;-1.606646;0.880044
7.460;-1.594902;0.834561
7.470;-1.584220;0.788258
7.480;-1.574245;0.740801
7.490;-1.564678;0.691498
7.500;-1.555493;0.639570
7.510;-1.546949;0.584516
7.520;-1.539447;0.526424
7.530;-1.533374;0.466105
7.540;-1.529038;0.405010
7.550;-1.526695;0.344952
7.560;-1.526604;0.287733
7.570;-1.529004;0.234798
7.580;-1.534027;0.187008
7.590;-1.541561;0.144595
7.600;-1.551166;0.107268
7.610;-1.562119;0.074365
7.620;-1.573541;0.044976
7.630;-1.584561;0.018051
7.640;-1.594423;-0.007440
7.650;-1.602536;-0.032284
7.660;-1.608512;-0.056806
7.670;-1.612213;-0.080770
7.680;-1.613780;-0.103460
7.690;-1.613587;-0.123910
7.700;-1.612117;-0.141192
7.710;-1.609787;-0.154670
7.720;-1.606805;-0.164179
7.730;-1.603131;-0.170074
7.740;-1.598577;-0.173155
7.750;-1.592966;-0.174480
7.760;-1.586268;-0.175124
7.770;-1.578605;-0.175958
7.780;-1.570146;-0.177498
7.790;-1.560976;-0.179843
7.800;-1.551030;-0.182712
7.810;-1.540134;-0.185573
7.820;-1.528102;-0.187841
7.830;-1.514833;-0.189066
7.840;-1.500331;-0.189022
7.850;-1.484646;-0.187642
7.860;-1.467781;-0.184834
7.870;-1.449616;-0.180285
7.880;-1.429916;-0.173395
7.890;-1.408417;-0.163429
