Time[s];COPx[cm];COPy[cm]
0.010;1.615519;0.129090
0.020;1.603394;0.168677
0.030;1.591815;0.208726
0.040;1.581308;0.249544
0.050;1.572336;0.291197
0.060;1.565092;0.333436
0.070;1.559223;0.375730
0.080;1.553635;0.417390
0.090;1.546499;0.457772
0.100;1.535515;0.496461
0.110;1.518347;0.533391
0.120;1.493097;0.568872
0.130;1.458634;0.603520
0.140;1.414635;0.638136
0.150;1.361289;0.673559
0.160;1.298784;0.710523
0.170;1.226825;0.749562
0.180;1.144438;0.790934
0.190;1.050239;0.834566
0.200;0.943107;0.880020
0.210;0.823069;0.926484
0.220;0.692066;0.972852
0.230;0.554307;1.017906
0.240;0.416000;1.060540
0.250;0.284454;1.099926
0.260;0.166711;1.135530
0.270;0.068106;1.166996
0.280;-0.008806;1.193978
0.290;-0.064575;1.216041
0.300;-0.102374;1.232697
0.310;-0.126916;1.243537
0.320;-0.143158;1.248383
0.330;-0.155215;1.247384
0.340;-0.165781;1.241015
0.350;-0.176156;1.229987
0.360;-0.186718;1.215081
0.370;-0.197530;1.196962
0.380;-0.208774;1.176026
0.390;-0.220872;1.152336
0.400;-0.234344;1.125688
0.410;-0.249521;1.095811
0.420;-0.266282;1.062619
0.430;-0.283878;1.026398
0.440;-0.300867;0.987790
0.450;-0.315150;0.947566
0.460;-0.324108;0.906270
0.470;-0.324870;0.863942
0.480;-0.314740;0.820086
0.490;-0.291724;0.773922
0.500;-0.255022;0.724812
0.510;-0.205298;0.672658
0.520;-0.144626;0.618128
0.530;-0.076113;0.562651
0.540;-0.003295;0.508208
0.550;0.070521;0.456984
0.560;0.142806;0.410973
0.570;0.212082;0.371618
0.580;0.277878;0.339597
0.590;0.340444;0.314748
0.600;0.400397;0.296154
0.610;0.458494;0.282329
0.620;0.515634;0.271505
0.630;0.573044;0.261958
0.640;0.632495;0.252290
0.650;0.696396;0.241559
0.660;0.767592;0.229227
0.670;0.848884;0.215007
0.680;0.942358;0.198751
0.690;1.048751;0.180496
0.700;1.167083;0.160594
0.710;1.294694;0.139782
0.720;1.427680;0.119035
0.730;1.561570;0.099260
0.740;1.692011;0.080961
0.750;1.815238;0.064073
0.760;1.928214;0.048041
0.770;2.028506;0.032095
0.780;2.114065;0.015624
0.790;2.183104;-0.001503
0.800;2.234158;-0.018775
0.810;2.266302;-0.035103
0.820;2.279440;-0.049112
0.830;2.274544;-0.059570
0.840;2.253770;-0.065817
0.850;2.220393;-0.068003
0.860;2.178524;-0.067058
0.870;2.132643;-0.064376
0.880;2.087041;-0.061332
0.890;2.045236;-0.058825
0.900;2.009517;-0.056995
0.910;1.980681;-0.055226
0.920;1.958031;-0.052384
0.930;1.939641;-0.047211
0.940;1.922799;-0.038718
0.950;1.904554;-0.026442
0.960;1.882249;-0.010473
0.970;1.853922;0.008758
0.980;1.818504;0.030815
0.990;1.775802;0.055539
1.000;1.726303;0.083182
1.010;1.670884;0.114394
1.020;1.610508;0.150126
1.030;1.546008;0.191493
1.040;1.477990;0.239584
1.050;1.406907;0.295211
1.060;1.333229;0.358623
1.070;1.257614;0.429292
1.080;1.180946;0.505883
1.090;1.104215;0.586472
1.100;1.028272;0.668933
1.110;0.953577;0.751323
1.120;0.880023;0.832065
1.130;0.806933;0.909885
1.140;0.733262;0.983586
1.150;0.657991;1.051839
1.160;0.580553;1.113143
1.170;0.501146;1.166014
1.180;0.420807;1.209301
1.190;0.341257;1.242462
1.200;0.264670;1.265651
1.210;0.193486;1.279589
1.220;0.130313;1.285293
1.230;0.077804;1.283799
1.240;0.038384;1.276000
1.250;0.013795;1.262622
1.260;0.004608;1.244297
1.270;0.009920;1.221595
1.280;0.027422;1.194978
1.290;0.053857;1.164649
1.300;0.085704;1.130430
1.310;0.119859;1.091788
1.320;0.154069;1.048058
1.330;0.187016;0.998831
1.340;0.218063;0.944333
1.350;0.246818;0.885648
1.360;0.272748;0.824661
1.370;0.295034;0.763741
1.380;0.312800;0.705239
1.390;0.325597;0.650951
1.400;0.333917;0.601728
1.410;0.339453;0.557325
1.420;0.344948;0.516574
1.430;0.353686;0.477790
1.440;0.368782;0.439298
1.450;0.392533;0.399855
1.460;0.425980;0.358837
1.470;0.468793;0.316168
1.480;0.519443;0.272056
1.490;0.575623;0.226683
1.500;0.634754;0.179985
1.510;0.694468;0.131617
1.520;0.752889;0.081100
1.530;0.808654;0.028064
1.540;0.860713;-0.027533
1.550;0.908021;-0.085277
1.560;0.949304;-0.144283
1.570;0.983022;-0.203233
1.580;1.007588;-0.260446
1.590;1.021765;-0.313975
1.600;1.025084;-0.361761
1.610;1.018096;-0.401897
1.620;1.002343;-0.432981
1.630;0.980061;-0.454459
1.640;0.953703;-0.466793
1.650;0.925463;-0.471361
1.660;0.896912;-0.470134
1.670;0.868851;-0.465237
1.680;0.841414;-0.458579
1.690;0.814355;-0.451631
1.700;0.787384;-0.445372
1.710;0.760402;-0.440335
1.720;0.733524;-0.436683
1.730;0.706926;-0.434260
1.740;0.680636;-0.432652
1.750;0.654378;-0.431230
1.760;0.627566;-0.429216
1.770;0.599406;-0.425722
1.780;0.569048;-0.419784
1.790;0.535754;-0.410389
1.800;0.499027;-0.396514
1.810;0.458711;-0.377193
1.820;0.414994;-0.351601
1.830;0.368310;-0.319161
1.840;0.319185;-0.279632
1.850;0.268071;-0.233208
1.860;0.215243;-0.180560
1.870;0.160794;-0.122826
1.880;0.104691;-0.061446
1.890;0.046832;0.002097
1.900;-0.012943;0.066561
1.910;-0.074893;0.131081
1.920;-0.139391;0.195122
1.930;-0.206858;0.258286
1.940;-0.277580;0.320144
1.950;-0.351428;0.380185
1.960;-0.427553;0.437899
1.970;-0.504177;0.492864
1.980;-0.578611;0.544718
1.990;-0.647577;0.593022
2.000;-0.707777;0.637156
2.010;-0.756538;0.676363
2.020;-0.792315;0.709931
2.030;-0.814932;0.737409
2.040;-0.825520;0.758744
2.050;-0.826197;0.774320
2.060;-0.819559;0.784870
2.070;-0.808118;0.791290
2.080;-0.793829;0.794423
2.090;-0.777827;0.794869
2.100;-0.760418;0.792912
2.110;-0.741241;0.788561
2.120;-0.719505;0.781701
2.130;-0.694231;0.772248
2.140;-0.664476;0.760255
2.150;-0.629564;0.745966
2.160;-0.589337;0.729845
2.170;-0.544405;0.712609
2.180;-0.496335;0.695208
2.190;-0.447661;0.678712
2.200;-0.401652;0.664084
2.210;-0.361829;0.651906
2.220;-0.331280;0.642151
2.230;-0.311965;0.634108
2.240;-0.304188;0.626497
2.250;-0.306383;0.617737
2.260;-0.315249;0.606276
2.270;-0.326216;0.590852
2.280;-0.334152;0.570639
2.290;-0.334227;0.545285
2.300;-0.322778;0.514904
2.310;-0.297927;0.480036
2.320;-0.259775;0.441555
2.330;-0.210123;0.400489
2.340;-0.151822;0.357807
2.350;-0.087989;0.314226
2.360;-0.021265;0.270120
2.370;0.046708;0.225535
2.380;0.115531;0.180319
2.390;0.185933;0.134279
2.400;0.259356;0.087280
2.410;0.337350;0.039265
2.420;0.420972;-0.009817
2.430;0.510363;-0.060069
2.440;0.604608;-0.111661
2.450;0.701854;-0.164807
2.460;0.799648;-0.219720
2.470;0.895370;-0.276558
2.480;0.986701;-0.335333
2.490;1.072015;-0.395814
2.500;1.150600;-0.457458
2.510;1.222659;-0.519473
2.520;1.289069;-0.580993
2.530;1.350965;-0.641322
2.540;1.409265;-0.700141
2.550;1.464311;-0.757567
2.560;1.515750;-0.814020
2.570;1.562694;-0.869933
2.580;1.604056;-0.925413
2.590;1.638902;-0.980013
2.600;1.666671;-1.032743
2.610;1.687221;-1.082347
2.620;1.700757;-1.127742
2.630;1.707719;-1.168374
2.640;1.708698;-1.204319
2.650;1.704384;-1.236054
2.660;1.695517;-1.264052
2.670;1.682794;-1.288443
2.680;1.666756;-1.308907
2.690;1.647691;-1.324867
2.700;1.625609;-1.335834
2.710;1.600299;-1.341719
2.720;1.571427;-1.342937
2.730;1.538622;-1.340272
2.740;1.501540;-1.334582
2.750;1.459905;-1.326483
2.760;1.413520;-1.316179
2.770;1.362234;-1.303487
2.780;1.305875;-1.288030
2.790;1.244178;-1.269486
2.800;1.176771;-1.247741
2.810;1.103235;-1.222924
2.820;1.023267;-1.195322
2.830;0.936907;-1.165252
2.840;0.844776;-1.132935
2.850;0.748243;-1.098438
2.860;0.649443;-1.061707
2.870;0.551132;-1.022637
2.880;0.456375;-0.981111
2.890;0.368115;-0.936967
2.900;0.288702;-0.889979
2.910;0.219491;-0.839936
2.920;0.160667;-0.786808
2.930;0.111348;-0.730881
2.940;0.069986;-0.672787
2.950;0.034881;-0.613391
2.960;0.004649;-0.553600
2.970;-0.021499;-0.494168
2.980;-0.043736;-0.435547
2.990;-0.061804;-0.377845
3.000;-0.075327;-0.320914
3.010;-0.084152;-0.264506
3.020;-0.088596;-0.208425
3.030;-0.089482;-0.152610
3.040;-0.087942;-0.097162
3.050;-0.085026;-0.042335
3.060;-0.081294;0.011514
3.070;-0.076555;0.064018
3.080;-0.069845;0.114933
3.090;-0.059646;0.164204
3.100;-0.044269;0.211907
3.110;-0.022278;0.258064
3.120;0.007165;0.302392
3.130;0.044150;0.344115
3.140;0.088075;0.381908
3.150;0.137841;0.414003
3.160;0.192048;0.438528
3.170;0.249135;0.454008
3.180;0.307428;0.459881
3.190;0.365176;0.456770
3.200;0.420639;0.446364
3.210;0.472229;0.430987
3.220;0.518690;0.413023
3.230;0.559273;0.394424
3.240;0.593888;0.376424
3.250;0.623234;0.359530
3.260;0.648883;0.343714
3.270;0.673301;0.328665
3.280;0.699707;0.313977
3.290;0.731739;0.299201
3.300;0.772903;0.283844
3.310;0.825914;0.267405
3.320;0.892095;0.249493
3.330;0.971009;0.229987
3.340;1.060401;0.209111
3.350;1.156445;0.187383
3.360;1.254232;0.165442
3.370;1.348371;0.143885
3.380;1.433606;0.123180
3.390;1.505332;0.103680
3.400;1.559993;0.085658
3.410;1.595360;0.069295
3.420;1.610698;0.054611
3.430;1.606820;0.041403
3.440;1.585984;0.029236
3.450;1.551623;0.017545
3.460;1.507930;0.005795
3.470;1.459361;-0.006381
3.480;1.410119;-0.019163
3.490;1.363724;-0.032639
3.500;1.322732;-0.046913
3.510;1.288636;-0.062096
3.520;1.261939;-0.078178
3.530;1.242327;-0.094855
3.540;1.228874;-0.111467
3.550;1.220226;-0.127080
3.560;1.214755;-0.140672
3.570;1.210720;-0.151328
3.580;1.206462;-0.158385
3.590;1.200662;-0.161515
3.600;1.192613;-0.160754
3.610;1.182406;-0.156479
3.620;1.170933;-0.149343
3.630;1.159630;-0.140143
3.640;1.150036;-0.129640
3.650;1.143295;-0.118362
3.660;1.139805;-0.106483
3.670;1.139108;-0.093839
3.680;1.140047;-0.080095
3.690;1.141098;-0.064976
3.700;1.140754;-0.048447
3.710;1.137863;-0.030735
3.720;1.131848;-0.012234
3.730;1.122739;0.006648
3.740;1.111038;0.025586
3.750;1.097448;0.044342
3.760;1.082598;0.062673
3.770;1.066862;0.080243
3.780;1.050296;0.096607
3.790;1.032684;0.111311
3.800;1.013602;0.124063
3.810;0.992476;0.134886
3.820;0.968646;0.144185
3.830;0.941448;0.152704
3.840;0.910305;0.161367
3.850;0.874781;0.171046
3.860;0.834591;0.182323
3.870;0.789607;0.195330
3.880;0.739947;0.209710
3.890;0.686169;0.224718
3.900;0.629486;0.239435
3.910;0.571836;0.253029
3.920;0.515681;0.264960
3.930;0.463516;0.275073
3.940;0.417289;0.283534
3.950;0.377961;0.290682
3.960;0.345414;0.296863
3.970;0.318738;0.302309
3.980;0.296776;0.307052
3.990;0.278680;0.310891
4.000;0.264242;0.313398
4.010;0.253885;0.314010
4.020;0.248338;0.312157
4.030;0.248192;0.307403
4.040;0.253514;0.299535
4.050;0.263642;0.288592
4.060;0.277179;0.274859
4.070;0.292130;0.258825
4.080;0.306147;0.241110
4.090;0.316819;0.222347
4.100;0.322011;0.203051
4.110;0.320186;0.183531
4.120;0.310644;0.163886
4.130;0.293628;0.144123
4.140;0.270275;0.124353
4.150;0.242432;0.104943
4.160;0.212360;0.086551
4.170;0.182410;0.069986
4.180;0.154693;0.055945
4.190;0.130832;0.044720
4.200;0.111798;0.035995
4.210;0.097891;0.028873
4.220;0.088836;0.022128
4.230;0.083951;0.014615
4.240;0.082329;0.005637
4.250;0.082996;-0.004898
4.260;0.085041;-0.016585
4.270;0.087720;-0.028821
4.280;0.090498;-0.041123
4.290;0.093044;-0.053340
4.300;0.095163;-0.065641
4.310;0.096714;-0.078328
4.320;0.097524;-0.091580
4.330;0.097328;-0.105293
4.340;0.095775;-0.119105
4.350;0.092515;-0.132534
4.360;0.087347;-0.145145
4.370;0.080383;-0.156658
4.380;0.072151;-0.166986
4.390;0.063571;-0.176237
4.400;0.055802;-0.184708
4.410;0.049992;-0.192872
4.420;0.047027;-0.201316
4.430;0.047402;-0.210591
4.440;0.051234;-0.221014
4.450;0.058358;-0.232544
4.460;0.068412;-0.244811
4.470;0.080877;-0.257286
4.480;0.095106;-0.269493
4.490;0.110429;-0.281135
4.500;0.126329;-0.292094
4.510;0.142621;-0.302307
4.520;0.159528;-0.311623
4.530;0.177587;-0.319697
4.540;0.197389;-0.326020
4.550;0.219262;-0.330054
4.560;0.243003;-0.331420
4.570;0.267800;-0.330061
4.580;0.292358;-0.326293
4.590;0.315201;-0.320730
4.600;0.335017;-0.314126
4.610;0.350920;-0.307201
4.620;0.362562;-0.300547
4.630;0.370095;-0.294584
4.640;0.374035;-0.289567
4.650;0.375077;-0.285564
4.660;0.373885;-0.282416
4.670;0.370930;-0.279711
4.680;0.366401;-0.276808
4.690;0.360244;-0.272939
4.700;0.352311;-0.267348
4.710;0.342593;-0.259435
4.720;0.331430;-0.248867
4.730;0.319617;-0.235632
4.740;0.308293;-0.220007
4.750;0.298615;-0.202448
4.760;0.291319;-0.183463
4.770;0.286385;-0.163513
4.780;0.282992;-0.142975
4.790;0.279799;-0.122137
4.800;0.275453;-0.101215
4.810;0.269098;-0.080410
4.820;0.260691;-0.059976
4.830;0.251024;-0.040243
4.840;0.241478;-0.021533
4.850;0.233626;-0.003980
4.860;0.228809;0.012637
4.870;0.227801;0.028935
4.880;0.230627;0.045764
4.890;0.236570;0.063907
4.900;0.244364;0.083781
4.910;0.252513;0.105305
4.920;0.259643;0.127979
4.930;0.264776;0.151130
4.940;0.267482;0.174201
4.950;0.267871;0.196942
4.960;0.266444;0.219432
4.970;0.263845;0.241929
4.980;0.260591;0.264672
4.990;0.256896;0.287727
5.000;0.252643;0.310956
5.010;0.247529;0.334067
5.020;0.241302;0.356725
5.030;0.234011;0.378617
5.040;0.226164;0.399468
5.050;0.218719;0.419030
5.060;0.212905;0.437098
5.070;0.209924;0.453579
5.080;0.210653;0.468553
5.090;0.215463;0.482255
5.100;0.224203;0.494958
5.110;0.236331;0.506797
5.120;0.251123;0.517638
5.130;0.267884;0.527083
5.140;0.286078;0.534614
5.150;0.305311;0.539818
5.160;0.325196;0.542592
5.170;0.345182;0.543229
5.180;0.364504;0.542345
5.190;0.382324;0.540677
5.200;0.398041;0.538844
5.210;0.411622;0.537148
5.220;0.423812;0.535478
5.230;0.436086;0.533330
5.240;0.450315;0.529912
5.250;0.468227;0.524346
5.260;0.490830;0.515945
5.270;0.517983;0.504489
5.280;0.548272;0.490374
5.290;0.579205;0.474543
5.300;0.607669;0.458195
5.310;0.630532;0.442373
5.320;0.645264;0.427625
5.330;0.650459;0.413870
5.340;0.646144;0.400555
5.350;0.633782;0.386988
5.360;0.615999;0.372697
5.370;0.596064;0.357648
5.380;0.577298;0.342246
5.390;0.562516;0.327136
5.400;0.553664;0.312881
5.410;0.551674;0.299666
5.420;0.556525;0.287138
5.430;0.567404;0.274462
5.440;0.582895;0.260571
5.450;0.601144;0.244500
5.460;0.620077;0.225689
5.470;0.637695;0.204138
5.480;0.652454;0.180378
5.490;0.663586;0.155277
5.500;0.671236;0.129772
5.510;0.676308;0.104668
5.520;0.680110;0.080581
5.530;0.683949;0.058008
5.540;0.688835;0.037412
5.550;0.695362;0.019219
5.560;0.703729;0.003735
5.570;0.713856;-0.008952
5.580;0.725482;-0.019014
5.590;0.738208;-0.026827
5.600;0.751458;-0.032856
5.610;0.764403;-0.037542
5.620;0.775953;-0.041209
5.630;0.784859;-0.044014
5.640;0.789928;-0.045931
5.650;0.790303;-0.046808
5.660;0.785709;-0.046496
5.670;0.776573;-0.045033
5.680;0.763973;-0.042772
5.690;0.749395;-0.040381
5.700;0.734383;-0.038669
5.710;0.720226;-0.038346
5.720;0.707777;-0.039806
5.730;0.697447;-0.043014
5.740;0.689291;-0.047488
5.750;0.683138;-0.052409
5.760;0.678728;-0.056821
5.770;0.675874;-0.059892
5.780;0.674601;-0.061117
5.790;0.675183;-0.060395
5.800;0.678046;-0.057970
5.810;0.683592;-0.054300
5.820;0.692056;-0.049908
5.830;0.703440;-0.045215
5.840;0.717521;-0.040401
5.850;0.733860;-0.035340
5.860;0.751787;-0.029634
5.870;0.770383;-0.022751
5.880;0.788504;-0.014180
5.890;0.804875;-0.003527
5.900;0.818260;0.009457
5.910;0.827658;0.024898
5.920;0.832480;0.042832
5.930;0.832626;0.063211
5.940;0.828464;0.085886
5.950;0.820726;0.110594
5.960;0.810379;0.136982
5.970;0.798513;0.164669
5.980;0.786243;0.193329
5.990;0.774611;0.222740
6.000;0.764471;0.252761
6.010;0.756382;0.283272
6.020;0.750524;0.314118
6.030;0.746679;0.345094
6.040;0.744286;0.375969
6.050;0.742550;0.406515
6.060;0.740607;0.436505
6.070;0.737707;0.465673
6.080;0.733387;0.493650
6.090;0.727568;0.519901
6.100;0.720528;0.543734
6.110;0.712725;0.564433
6.120;0.704528;0.581451
6.130;0.695947;0.594592
6.140;0.686536;0.604086
6.150;0.675512;0.610540
6.160;0.662107;0.614814
6.170;0.645976;0.617849
6.180;0.627503;0.620485
6.190;0.607849;0.623278
6.200;0.588713;0.626369
6.210;0.571898;0.629476
6.220;0.558839;0.632042
6.230;0.550241;0.633470
6.240;0.545920;0.633336
6.250;0.544884;0.631471
6.260;0.545608;0.627908
6.270;0.546397;0.622779
6.280;0.545705;0.616237
6.290;0.542329;0.608457
6.300;0.535477;0.599656
6.310;0.524768;0.590115
6.320;0.510234;0.580159
6.330;0.492357;0.570157
6.340;0.472102;0.560528
6.350;0.450873;0.551741
6.360;0.430334;0.544230
6.370;0.412107;0.538231
6.380;0.397464;0.533624
6.390;0.387138;0.529907
6.400;0.381329;0.526330
6.410;0.379873;0.522133
6.420;0.382465;0.516730
6.430;0.388875;0.509769
6.440;0.399109;0.501074
6.450;0.413498;0.490572
6.460;0.432669;0.478259
6.470;0.457357;0.464244
6.480;0.488081;0.448800
6.490;0.524774;0.432389
6.500;0.566501;0.415595
6.510;0.611418;0.398997
6.520;0.656977;0.383009
6.530;0.700354;0.367782
6.540;0.738957;0.353190
6.550;0.770880;0.338921
6.560;0.795173;0.324588
6.570;0.811879;0.309809
6.580;0.821876;0.294250
6.590;0.826622;0.277641
6.600;0.827887;0.259835
6.610;0.827493;0.240880
6.620;0.827057;0.221097
6.630;0.827748;0.201080
6.640;0.830121;0.181617
6.650;0.834077;0.163546
6.660;0.838963;0.147624
6.670;0.843764;0.134427
6.680;0.847320;0.124293
6.690;0.848532;0.117330
6.700;0.846519;0.113458
6.710;0.840730;0.112461
6.720;0.831037;0.113974
6.730;0.817780;0.117434
6.740;0.801765;0.122092
6.750;0.784150;0.127159
6.760;0.766244;0.132027
6.770;0.749240;0.136425
6.780;0.733992;0.140392
6.790;0.720904;0.144085
6.800;0.709949;0.147539
6.810;0.700821;0.150532
6.820;0.693125;0.152582
6.830;0.686533;0.153093
6.840;0.680826;0.151564
6.850;0.675827;0.147789
6.860;0.671255;0.141960
6.870;0.666631;0.134646
6.880;0.661283;0.126640
6.890;0.654489;0.118736
6.900;0.645658;0.111504
6.910;0.634484;0.105135
6.920;0.621001;0.099453
6.930;0.605520;0.094118
6.940;0.588516;0.088962
6.950;0.570499;0.084264
6.960;0.551890;0.080767
6.970;0.532907;0.079406
6.980;0.513483;0.080910
6.990;0.493243;0.085546
7.000;0.471541;0.093114
7.010;0.447536;0.103175
7.020;0.420292;0.115296
7.030;0.388921;0.129151
7.040;0.352778;0.144447
7.050;0.311686;0.160782
7.060;0.266112;0.177572
7.070;0.217222;0.194125
7.080;0.166770;0.209822
7.090;0.116862;0.224310
7.100;0.069659;0.237587
7.110;0.027081;0.249952
7.120;-0.009423;0.261806
7.130;-0.039005;0.273408
7.140;-0.061428;0.284678
7.150;-0.076968;0.295156
7.160;-0.086271;0.304144
7.170;-0.090229;0.310975
7.180;-0.089889;0.315275
7.190;-0.086401;0.317086
7.200;-0.080963;0.316804
7.210;-0.074759;0.314991
7.220;-0.068909;0.312180
7.230;-0.064443;0.308771
7.240;-0.062277;0.305049
7.250;-0.063142;0.301259
7.260;-0.067447;0.297681
7.270;-0.075097;0.294632
7.280;-0.085334;0.292411
7.290;-0.096696;0.291231
7.300;-0.107154;0.291162
7.310;-0.114404;0.292122
7.320;-0.116229;0.293885
7.330;-0.110819;0.296129
7.340;-0.096968;0.298490
7.350;-0.074113;0.300657
7.360;-0.042192;0.302449
7.370;-0.001382;0.303826
7.380;0.048157;0.304753
7.390;0.106378;0.304996
7.400;0.173206;0.303960
7.410;0.248240;0.300711
7.420;0.330497;0.294195
7.430;0.418325;0.283555
7.440;0.509550;0.268405
7.450;0.601728;0.248946
7.460;0.692418;0.225873
7.470;0.779427;0.200124
7.480;0.861015;0.172594
7.490;0.936069;0.143975
7.500;1.004184;0.114798
7.510;1.065594;0.085601
7.520;1.120970;0.057087
7.530;1.171140;0.030120
7.540;1.216831;0.005568
7.550;1.258496;-0.015934
7.560;1.296243;-0.034157
7.570;1.329832;-0.049291
7.580;1.358743;-0.061806
7.590;1.382284;-0.072225
7.600;1.399745;-0.080916
7.610;1.410547;-0.087999
7.620;1.414338;-0.093386
7.630;1.410982;-0.096917
7.640;1.400491;-0.098500
7.650;1.382979;-0.098189
7.660;1.358730;-0.096182
7.670;1.328378;-0.092744
7.680;1.293064;-0.088100
7.690;1.254442;-0.082365
7.700;1.214451;-0.075552
7.710;1.174936;-0.067669
7.720;1.137246;-0.058846
7.730;1.101974;-0.049455
7.740;1.068893;-0.040118
7.750;1.037094;-0.031604
7.760;1.005245;-0.024598
7.770;0.971921;-0.019439
7.780;0.935915;-0.015924
7.790;0.896473;-0.013284
7.800;0.853407;-0.010378
7.810;0.807061;-0.006032
7.820;0.758159;0.000637
7.830;0.707567;0.010064
7.840;0.656067;0.022282
7.850;0.604191;0.037047
7.860;0.552143;0.053963
7.870;0.499812;0.072551
7.880;0.446853;0.092299
7.890;0.392802;0.112720
7.900;0.337188;0.133395
7.910;0.279633;0.153996
7.920;0.219946;0.174282
7.930;0.158226;0.194088
7.940;0.094920;0.213310
7.950;0.030791;0.231897
7.960;-0.033210;0.249846
7.970;-0.096148;0.267163
7.980;-0.157283;0.283810
7.990;-0.216197;0.299645
8.000;-0.272785;0.314424
8.010;-0.327158;0.327917
8.020;-0.379487;0.340088
8.030;-0.429884;0.351244
8.040;-0.478365;0.362031
8.050;-0.524907;0.373257
8.060;-0.569546;0.385622
8.070;-0.612441;0.399465
8.080;-0.653821;0.414672
8.090;-0.693817;0.430776
8.100;-0.732266;0.447195
8.110;-0.768579;0.463475
8.120;-0.801765;0.479433
8.130;-0.830551;0.495141
8.140;-0.853567;0.510801
8.150;-0.869537;0.526574
