Time[s];COPx[cm];COPy[cm]
0.010;-1.595067;-0.273863
0.020;-1.559084;-0.294816
0.030;-1.517429;-0.320327
0.040;-1.466783;-0.353621
0.050;-1.407544;-0.395852
0.060;-1.343880;-0.445888
0.070;-1.282408;-0.500790
0.080;-1.230125;-0.556764
0.090;-1.192384;-0.610250
0.100;-1.171616;-0.658834
0.110;-1.167043;-0.701753
0.120;-1.175279;-0.739889
0.130;-1.191406;-0.775288
0.140;-1.210147;-0.810368
0.150;-1.226823;-0.847103
0.160;-1.237983;-0.886475
0.170;-1.241663;-0.928360
0.180;-1.237372;-0.971839
0.190;-1.225872;-1.015727
0.200;-1.208810;-1.059098
0.210;-1.188232;-1.101622
0.220;-1.166056;-1.143653
0.230;-1.143622;-1.186082
0.240;-1.121460;-1.230031
0.250;-1.099330;-1.276506
0.260;-1.076518;-1.326090
0.270;-1.052285;-1.378798
0.280;-1.026319;-1.434132
0.290;-0.999054;-1.491318
0.300;-0.971704;-1.549615
0.310;-0.946008;-1.608555
0.320;-0.923728;-1.668040
0.330;-0.906091;-1.728309
0.340;-0.893347;-1.789849
0.350;-0.884618;-1.853314
0.360;-0.878069;-1.919433
0.370;-0.871365;-1.988877
0.380;-0.862264;-2.062049
0.390;-0.849154;-2.138830
0.400;-0.831393;-2.218360
0.410;-0.809341;-2.298987
0.420;-0.784070;-2.378459
0.430;-0.756878;-2.454374
0.440;-0.728755;-2.524732
0.450;-0.699997;-2.588456
0.460;-0.670052;-2.645659
0.470;-0.637571;-2.697576
0.480;-0.600605;-2.746085
0.490;-0.556888;-2.792971
0.500;-0.504196;-2.839143
0.510;-0.440728;-2.884139
0.520;-0.365474;-2.926141
0.530;-0.278486;-2.962533
0.540;-0.180997;-2.990764
0.550;-0.075335;-3.009196
0.560;0.035359;-3.017615
0.570;0.147576;-3.017267
0.580;0.257945;-3.010424
0.590;0.363684;-2.999654
0.600;0.462881;-2.987072
0.610;0.554555;-2.973823
0.620;0.638504;-2.959943
0.630;0.715016;-2.944550
0.640;0.784500;-2.926200
0.650;0.847154;-2.903239
0.660;0.902787;-2.874003
0.670;0.950876;-2.836897
0.680;0.990833;-2.790429
0.690;1.022400;-2.733348
0.700;1.045964;-2.664946
0.710;1.062642;-2.585447
0.720;1.074051;-2.496312
0.730;1.081849;-2.400269
0.740;1.087257;-2.300945
0.750;1.090787;-2.202134
0.760;1.092323;-2.106930
0.770;1.091500;-2.017052
0.780;1.088208;-1.932605
0.790;1.083035;-1.852387
0.800;1.077464;-1.774578
0.810;1.073776;-1.697536
0.820;1.074688;-1.620417
0.830;1.082857;-1.543427
0.840;1.100396;-1.467705
0.850;1.128540;-1.394959
0.860;1.167482;-1.327079
0.870;1.216349;-1.265865
0.880;1.273280;-1.212888
0.890;1.335572;-1.169420
0.900;1.399900;-1.136344
0.910;1.462604;-1.114032
0.920;1.520029;-1.102235
0.930;1.568851;-1.100051
0.940;1.606364;-1.105994
0.950;1.630665;-1.118151
0.960;1.640764;-1.134342
0.970;1.636636;-1.152216
0.980;1.619258;-1.169260
0.990;1.590589;-1.182801
1.000;1.553396;-1.190107
1.010;1.510819;-1.188649
1.020;1.465672;-1.176467
1.030;1.419632;-1.152479
1.040;1.372608;-1.116600
1.050;1.322576;-1.069582
1.060;1.265996;-1.012641
1.070;1.198728;-0.947017
1.080;1.117181;-0.873644
1.090;1.019387;-0.793054
1.100;0.905742;-0.705560
1.110;0.779212;-0.611596
1.120;0.644933;-0.512029
1.130;0.509303;-0.408233
1.140;0.378805;-0.301859
1.150;0.258912;-0.194367
1.160;0.153366;-0.086556
1.170;0.063985;0.021670
1.180;-0.009065;0.131130
1.190;-0.066748;0.242811
1.200;-0.110621;0.357152
1.210;-0.142443;0.473455
1.220;-0.163979;0.589661
1.230;-0.176949;0.702577
1.240;-0.183059;0.808435
1.250;-0.184067;0.903609
1.260;-0.181853;0.985278
1.270;-0.178440;1.051924
1.280;-0.175938;1.103565
1.290;-0.176372;1.141679
1.300;-0.181468;1.168836
1.310;-0.192404;1.188079
1.320;-0.209577;1.202245
1.330;-0.232372;1.213403
1.340;-0.258989;1.222553
1.350;-0.286436;1.229602
1.360;-0.310788;1.233562
1.370;-0.327713;1.232905
1.380;-0.333179;1.226084
1.390;-0.324159;1.212129
1.400;-0.299162;1.191170
1.410;-0.258442;1.164700
1.420;-0.203856;1.135432
1.430;-0.138449;1.106752
1.440;-0.065911;1.081922
1.450;0.009930;1.063243
1.460;0.085520;1.051446
1.470;0.157881;1.045472
1.480;0.224831;1.042712
1.490;0.285110;1.039632
1.500;0.338382;1.032564
1.510;0.385079;1.018419
1.520;0.426095;0.995126
1.530;0.462386;0.961782
1.540;0.494601;0.918580
1.550;0.522838;0.866674
1.560;0.546594;0.808074
1.570;0.564917;0.745528
1.580;0.576690;0.682321
1.590;0.580975;0.621852
1.600;0.577320;0.567021
1.610;0.565951;0.519578
1.620;0.547807;0.479706
1.630;0.524440;0.446041
1.640;0.497801;0.416170
1.650;0.469947;0.387418
1.660;0.442714;0.357652
1.670;0.417461;0.325847
1.680;0.394924;0.292297
1.690;0.375242;0.258432
1.700;0.358118;0.226357
1.710;0.343067;0.198250
1.720;0.329659;0.175798
1.730;0.317737;0.159796
1.740;0.307529;0.149987
1.750;0.299629;0.145169
1.760;0.294832;0.143522
1.770;0.293871;0.143061
1.780;0.297173;0.142064
1.790;0.304725;0.139348
1.800;0.316109;0.134290
1.810;0.330654;0.126644
1.820;0.347621;0.116275
1.830;0.366308;0.102983
1.840;0.386049;0.086500
1.850;0.406122;0.066594
1.860;0.425683;0.043184
1.870;0.443800;0.016362
1.880;0.459629;-0.013705
1.890;0.472685;-0.046978
1.900;0.483120;-0.083729
1.910;0.491852;-0.124604
1.920;0.500467;-0.170434
1.930;0.510888;-0.221845
1.940;0.524887;-0.278804
1.950;0.543615;-0.340374
1.960;0.567302;-0.404783
1.970;0.595242;-0.469825
1.980;0.626058;-0.533393
1.990;0.658133;-0.593937
2.000;0.690035;-0.650682
2.010;0.720764;-0.703524
2.020;0.749786;-0.752708
2.030;0.776863;-0.798450
2.040;0.801817;-0.840702
2.050;0.824312;-0.879124
2.060;0.843748;-0.913254
2.070;0.859313;-0.942719
2.080;0.870141;-0.967379
2.090;0.875523;-0.987305
2.100;0.875067;-1.002621
2.110;0.868786;-1.013313
2.120;0.857131;-1.019109
2.130;0.840948;-1.019500
2.140;0.821366;-1.013909
2.150;0.799604;-1.001953
2.160;0.776757;-0.983662
2.170;0.753660;-0.959574
2.180;0.730869;-0.930633
2.190;0.708784;-0.897959
2.200;0.687825;-0.862632
2.210;0.668580;-0.825632
2.220;0.651889;-0.787955
2.230;0.638812;-0.750815
2.240;0.630510;-0.715764
2.250;0.628045;-0.684611
2.260;0.632187;-0.659125
2.270;0.643248;-0.640633
2.280;0.661033;-0.629669
2.290;0.684905;-0.625791
2.300;0.713939;-0.627618
2.310;0.747128;-0.633076
2.320;0.783578;-0.639760
2.330;0.822655;-0.645308
2.340;0.864042;-0.647709
2.350;0.907678;-0.645514
2.360;0.953603;-0.637987
2.370;1.001733;-0.625149
2.380;1.051641;-0.607693
2.390;1.102345;-0.586768
2.400;1.152207;-0.563690
2.410;1.198978;-0.539699
2.420;1.240069;-0.515847
2.430;1.273002;-0.492997
2.440;1.295897;-0.471899
2.450;1.307867;-0.453225
2.460;1.309163;-0.437515
2.470;1.301029;-0.425003
2.480;1.285335;-0.415421
2.490;1.264118;-0.407891
2.500;1.239226;-0.401028
2.510;1.212178;-0.393244
2.520;1.184227;-0.383162
2.530;1.156528;-0.369965
2.540;1.130277;-0.353583
2.550;1.106716;-0.334644
2.560;1.086971;-0.314259
2.570;1.071789;-0.293739
2.580;1.061282;-0.274363
2.590;1.054800;-0.257233
2.600;1.051032;-0.243209
2.610;1.048322;-0.232892
2.620;1.045094;-0.226619
2.630;1.040233;-0.224483
2.640;1.033263;-0.226352
2.650;1.024274;-0.231852
2.660;1.013658;-0.240327
2.670;1.001774;-0.250787
2.680;0.988702;-0.261921
2.690;0.974188;-0.272206
2.700;0.957812;-0.280115
2.710;0.939298;-0.284368
2.720;0.918790;-0.284139
2.730;0.896945;-0.279183
2.740;0.874814;-0.269867
2.750;0.853558;-0.257101
2.760;0.834123;-0.242167
2.770;0.817006;-0.226454
2.780;0.802173;-0.211146
2.790;0.789183;-0.196968
2.800;0.777464;-0.184064
2.810;0.766661;-0.172087
2.820;0.756910;-0.160438
2.830;0.748965;-0.148554
2.840;0.744109;-0.136132
2.850;0.743906;-0.123216
2.860;0.749858;-0.110165
2.870;0.763097;-0.097532
2.880;0.784211;-0.085919
2.890;0.813221;-0.075864
2.900;0.849695;-0.067782
2.910;0.892904;-0.061955
2.920;0.941931;-0.058517
2.930;0.995708;-0.057448
2.940;1.052963;-0.058570
2.950;1.112136;-0.061621
2.960;1.171343;-0.066420
2.970;1.228468;-0.073051
2.980;1.281393;-0.081897
2.990;1.328327;-0.093471
3.000;1.368082;-0.108042
3.010;1.400188;-0.125247
3.020;1.424795;-0.143874
3.030;1.442442;-0.161977
3.040;1.453831;-0.177350
3.050;1.459725;-0.188203
3.060;1.460966;-0.193758
3.070;1.458522;-0.194508
3.080;1.453448;-0.192028
3.090;1.446712;-0.188437
3.100;1.438991;-0.185760
3.110;1.430544;-0.185431
3.120;1.421250;-0.188043
3.130;1.410780;-0.193366
3.140;1.398837;-0.200539
3.150;1.385374;-0.208346
3.160;1.370756;-0.215481
3.170;1.355816;-0.220760
3.180;1.341757;-0.223261
3.190;1.329872;-0.222413
3.200;1.321152;-0.218050
3.210;1.315912;-0.210397
3.220;1.313580;-0.200027
3.230;1.312704;-0.187769
3.240;1.311201;-0.174615
3.250;1.306726;-0.161619
3.260;1.297073;-0.149797
3.270;1.280488;-0.140002
3.280;1.255833;-0.132798
3.290;1.222611;-0.128372
3.300;1.180924;-0.126545
3.310;1.131432;-0.126862
3.320;1.075343;-0.128756
3.330;1.014372;-0.131700
3.340;0.950580;-0.135295
3.350;0.886069;-0.139272
3.360;0.822609;-0.143390
3.370;0.761339;-0.147297
3.380;0.702685;-0.150419
3.390;0.646547;-0.151970
3.400;0.592689;-0.151130
3.410;0.541193;-0.147339
3.420;0.492778;-0.140579
3.430;0.448835;-0.131478
3.440;0.411151;-0.121169
3.450;0.381387;-0.110944
3.460;0.360517;-0.101879
3.470;0.348430;-0.094611
3.480;0.343847;-0.089342
3.490;0.344571;-0.086016
3.500;0.347989;-0.084514
3.510;0.351698;-0.084760
3.520;0.354081;-0.086721
3.530;0.354666;-0.090341
3.540;0.354181;-0.095486
3.550;0.354256;-0.101911
3.560;0.356882;-0.109282
3.570;0.363772;-0.117225
3.580;0.375830;-0.125417
3.590;0.392858;-0.133703
3.600;0.413546;-0.142196
3.610;0.435715;-0.151294
3.620;0.456797;-0.161560
3.630;0.474483;-0.173468
3.640;0.487426;-0.187091
3.650;0.495825;-0.201864
3.660;0.501712;-0.216543
3.670;0.508819;-0.229433
3.680;0.521990;-0.238816
3.690;0.546231;-0.243455
3.700;0.585628;-0.242981
3.710;0.642444;-0.238086
3.720;0.716634;-0.230432
3.730;0.805931;-0.222304
3.740;0.906410;-0.216079
3.750;1.013363;-0.213673
3.760;1.122185;-0.216165
3.770;1.229077;-0.223725
3.780;1.331405;-0.235812
3.790;1.427707;-0.251484
3.800;1.517384;-0.269644
3.810;1.600201;-0.289131
3.820;1.675759;-0.308744
3.830;1.743080;-0.327275
3.840;1.800459;-0.343636
3.850;1.845626;-0.357047
3.860;1.876180;-0.367232
3.870;1.890165;-0.374530
3.880;1.886616;-0.379859
3.890;1.865881;-0.384535
3.900;1.829647;-0.389972
3.910;1.780641;-0.397334
3.920;1.722163;-0.407242
3.930;1.657600;-0.419640
3.940;1.590060;-0.433861
3.950;1.522166;-0.448881
3.960;1.455987;-0.463643
3.970;1.393052;-0.477386
3.980;1.334376;-0.489855
3.990;1.280491;-0.501350
4.000;1.231446;-0.512597
4.010;1.186864;-0.524531
4.020;1.146094;-0.538048
4.030;1.108501;-0.553818
4.040;1.073807;-0.572186
4.050;1.042359;-0.593156
4.060;1.015200;-0.616462
4.070;0.993852;-0.641685
4.080;0.979881;-0.668393
4.090;0.974346;-0.696242
4.100;0.977321;-0.724978
4.110;0.987673;-0.754287
4.120;1.003184;-0.783581
4.130;1.021012;-0.811866
4.140;1.038313;-0.837841
4.150;1.052747;-0.860250
4.160;1.062709;-0.878307
4.170;1.067239;-0.891952
4.180;1.065759;-0.901792
4.190;1.057826;-0.908755
4.200;1.043045;-0.913681
4.210;1.021162;-0.917057
4.220;0.992312;-0.918994
4.230;0.957307;-0.919377
4.240;0.917791;-0.918052
4.250;0.876142;-0.914926
4.260;0.835037;-0.909967
4.270;0.796786;-0.903116
4.280;0.762710;-0.894195
4.290;0.732855;-0.882876
4.300;0.706261;-0.868782
4.310;0.681685;-0.851703
4.320;0.658476;-0.831828
4.330;0.637189;-0.809885
4.340;0.619640;-0.787051
4.350;0.608322;-0.764671
4.360;0.605406;-0.743870
4.370;0.611740;-0.725255
4.380;0.626298;-0.708827
4.390;0.646325;-0.694136
4.400;0.668129;-0.680584
4.410;0.688168;-0.667766
4.420;0.704037;-0.655718
4.430;0.715024;-0.644958
4.440;0.722137;-0.636284
4.450;0.727661;-0.630419
4.460;0.734480;-0.627687
4.470;0.745375;-0.627870
4.480;0.762491;-0.630341
4.490;0.787042;-0.634400
4.500;0.819256;-0.639666
4.510;0.858500;-0.646356
4.520;0.903543;-0.655313
4.530;0.952908;-0.667788
4.540;1.005263;-0.685055
4.550;1.059776;-0.708039
4.560;1.116331;-0.737075
4.570;1.175478;-0.771894
4.580;1.238101;-0.811795
4.590;1.304919;-0.855909
4.600;1.375992;-0.903449
4.610;1.450460;-0.953841
4.620;1.526591;-1.006729
4.630;1.602133;-1.061886
4.640;1.674804;-1.119083
4.650;1.742744;-1.177980
4.660;1.804780;-1.238074
4.670;1.860465;-1.298714
4.680;1.909919;-1.359139
4.690;1.953560;-1.418479
4.700;1.991799;-1.475705
4.710;2.024788;-1.529610
4.720;2.052266;-1.578888
4.730;2.073553;-1.622351
4.740;2.087695;-1.659194
4.750;2.093734;-1.689230
4.760;2.091062;-1.712969
4.770;2.079762;-1.731507
4.780;2.060837;-1.746224
4.790;2.036219;-1.758388
4.800;2.008510;-1.768795
4.810;1.980509;-1.777579
4.820;1.954667;-1.784242
4.830;1.932651;-1.787850
4.840;1.915163;-1.787318
4.850;1.902056;-1.781675
4.860;1.892633;-1.770243
4.870;1.885988;-1.752702
4.880;1.881239;-1.729059
4.890;1.877621;-1.699579
4.900;1.874472;-1.664711
4.910;1.871192;-1.625022
4.920;1.867219;-1.581107
4.930;1.862017;-1.533482
4.940;1.855073;-1.482419
4.950;1.845898;-1.427818
4.960;1.834014;-1.369180
4.970;1.818937;-1.305790
4.980;1.800142;-1.237056
4.990;1.777014;-1.162867
5.000;1.748829;-1.083777
5.010;1.714773;-1.000916
5.020;1.674040;-0.915653
5.030;1.625963;-0.829153
5.040;1.570199;-0.742034
5.050;1.506935;-0.654283
5.060;1.437092;-0.565536
5.070;1.362466;-0.475637
5.080;1.285729;-0.385224
5.090;1.210212;-0.296050
5.100;1.139456;-0.210796
5.110;1.076685;-0.132432
5.120;1.024361;-0.063412
5.130;0.984017;-0.005051
5.140;0.956401;0.042644
5.150;0.941792;0.080690
5.160;0.940313;0.110559
5.170;0.952056;0.133574
5.180;0.976977;0.150473
5.190;1.014611;0.161294
5.200;1.063778;0.165602
5.210;1.122440;0.162968
5.220;1.187838;0.153476
5.230;1.256900;0.138053
5.240;1.326779;0.118469
5.250;1.395321;0.097035
5.260;1.461282;0.076138
5.270;1.524221;0.057766
5.280;1.584116;0.043188
5.290;1.640892;0.032838
5.300;1.694084;0.026397
5.310;1.742797;0.022996
5.320;1.785958;0.021455
5.330;1.822731;0.020501
5.340;1.852868;0.018949
5.350;1.876864;0.015886
5.360;1.895856;0.010846
5.370;1.911344;0.003887
5.380;1.924863;-0.004477
5.390;1.937744;-0.013528
5.400;1.951053;-0.022679
5.410;1.965684;-0.031753
5.420;1.982534;-0.041101
5.430;2.002637;-0.051485
5.440;2.027181;-0.063791
5.450;2.057381;-0.078682
5.460;2.094238;-0.096382
5.470;2.138283;-0.116682
5.480;2.189407;-0.139142
5.490;2.246851;-0.163342
5.500;2.309346;-0.189048
5.510;2.375345;-0.216214
5.520;2.443238;-0.244860
5.530;2.511493;-0.274907
5.540;2.578668;-0.306026
5.550;2.643307;-0.337601
5.560;2.703757;-0.368789
5.570;2.758037;-0.398662
5.580;2.803864;-0.426346
5.590;2.838922;-0.451105
5.600;2.861338;-0.472388
5.610;2.870238;-0.489831
5.620;2.866155;-0.503256
5.630;2.851048;-0.512629
5.640;2.827832;-0.517991
5.650;2.799543;-0.519360
5.660;2.768435;-0.516644
5.670;2.735389;-0.509620
5.680;2.699855;-0.497997
5.690;2.660339;-0.481543
5.700;2.615239;-0.460193
5.710;2.563724;-0.434097
5.720;2.506379;-0.403581
5.730;2.445408;-0.369085
5.740;2.384312;-0.331136
5.750;2.327135;-0.290374
5.760;2.277515;-0.247593
5.770;2.237862;-0.203735
5.780;2.208936;-0.159801
5.790;2.189904;-0.116702
5.800;2.178798;-0.075118
5.810;2.173161;-0.035421
5.820;2.170669;0.002322
5.830;2.169573;0.038285
5.840;2.168876;0.072800
5.850;2.168283;0.106264
5.860;2.167932;0.139049
5.870;2.168005;0.171439
5.880;2.168285;0.203634
5.890;2.167839;0.235829
5.900;2.164927;0.268322
5.910;2.157246;0.301583
5.920;2.142446;0.336191
5.930;2.118777;0.372649
5.940;2.085682;0.411132
5.950;2.044139;0.451281
5.960;1.996595;0.492161
5.970;1.946489;0.532417
5.980;1.897466;0.570599
5.990;1.852561;0.605542
6.000;1.813614;0.636697
6.010;1.781077;0.664303
6.020;1.754233;0.689298
6.030;1.731689;0.713011
6.040;1.711960;0.736716
6.050;1.693988;0.761235
6.060;1.677463;0.786701
6.070;1.662895;0.812548
6.080;1.651461;0.837670
6.090;1.644671;0.860717
6.100;1.643947;0.880396
6.110;1.650202;0.895729
6.120;1.663521;0.906191
6.130;1.682997;0.911734
6.140;1.706766;0.912736
6.150;1.732212;0.909943
6.160;1.756311;0.904428
6.170;1.776066;0.897524
6.180;1.788957;0.890676
6.190;1.793326;0.885174
6.200;1.788584;0.881846
6.210;1.775164;0.880828
6.220;1.754233;0.881513
6.230;1.727271;0.882724
6.240;1.695667;0.883054
6.250;1.660486;0.881285
6.260;1.622461;0.876745
6.270;1.582197;0.869522
6.280;1.540442;0.860473
6.290;1.498271;0.851046
6.300;1.457076;0.842959
6.310;1.418326;0.837824
6.320;1.383231;0.836812
6.330;1.352447;0.840420
6.340;1.325992;0.848385
6.350;1.303426;0.859762
6.360;1.284221;0.873157
6.370;1.268176;0.887075
6.380;1.255683;0.900282
6.390;1.247700;0.912070
6.400;1.245416;0.922324
6.410;1.249729;0.931402
6.420;1.260744;0.939882
6.430;1.277511;0.948293
6.440;1.298147;0.956910
6.450;1.320307;0.965650
6.460;1.341809;0.974096
6.470;1.361135;0.981607
6.480;1.377622;0.987464
6.490;1.391296;0.991002
6.500;1.402511;0.991723
6.510;1.411570;0.989378
6.520;1.418491;0.984028
6.530;1.423021;0.976017
6.540;1.424865;0.965855
6.550;1.424029;0.953972
6.560;1.421123;0.940462
6.570;1.417455;0.924900
6.580;1.414850;0.906366
6.590;1.415246;0.883706
6.600;1.420208;0.855928
6.610;1.430534;0.822569
6.620;1.446083;0.783871
6.630;1.465885;0.740737
6.640;1.488468;0.694491
6.650;1.512277;0.646549
6.660;1.536033;0.598095
6.670;1.558912;0.549892
6.680;1.580558;0.502267
6.690;1.600979;0.455285
6.700;1.620377;0.409023
6.710;1.638949;0.363829
6.720;1.656695;0.320429
6.730;1.673276;0.279870
6.740;1.687951;0.243354
6.750;1.699628;0.212014
6.760;1.707027;0.186681
6.770;1.708948;0.167639
6.780;1.704573;0.154431
6.790;1.693684;0.145813
6.800;1.676703;0.139934
6.810;1.654561;0.134749
6.820;1.628452;0.128580
6.830;1.599587;0.120622
6.840;1.569038;0.111193
6.850;1.537703;0.101569
6.860;1.506366;0.093417
6.870;1.475795;0.088075
6.880;1.446765;0.085961
6.890;1.419996;0.086376
6.900;1.396022;0.087764
6.910;1.375083;0.088259
6.920;1.357096;0.086264
6.930;1.341740;0.080824
6.940;1.328614;0.071680
6.950;1.317402;0.059081
6.960;1.307987;0.043512
6.970;1.300453;0.025482
6.980;1.294990;0.005473
6.990;1.291694;-0.015991
7.000;1.290345;-0.038239
7.010;1.290237;-0.060436
7.020;1.290099;-0.081670
7.030;1.288169;-0.101138
7.040;1.282416;-0.118303
7.050;1.270870;-0.132993
7.060;1.252001;-0.145389
7.070;1.225025;-0.155968
7.080;1.190034;-0.165385
7.090;1.147917;-0.174309
7.100;1.100103;-0.183227
7.110;1.048224;-0.192283
7.120;0.993846;-0.201252
7.130;0.938374;-0.209687
7.140;0.883160;-0.217157
7.150;0.829718;-0.223429
7.160;0.779892;-0.228502
7.170;0.735810;-0.232458
7.180;0.699589;-0.235237
7.190;0.672879;-0.236500
7.200;0.656477;-0.235655
7.210;0.650171;-0.232086
7.220;0.652868;-0.225452
7.230;0.662924;-0.215929
7.240;0.678516;-0.204261
7.250;0.697921;-0.191600
7.260;0.719673;-0.179206
7.270;0.742585;-0.168121
7.280;0.765744;-0.158956
7.290;0.788536;-0.151862
7.300;0.810743;-0.146667
7.310;0.832671;-0.143084
7.320;0.855176;-0.140885
7.330;0.879501;-0.139946
7.340;0.906920;-0.140177
7.350;0.938265;-0.141392
7.360;0.973496;-0.143208
7.370;1.011460;-0.145044
7.380;1.049960;-0.146214
7.390;1.086153;-0.146088
7.400;1.117213;-0.144239
7.410;1.141059;-0.140508
7.420;1.156877;-0.134948
7.430;1.165260;-0.127700
7.440;1.167912;-0.118865
7.450;1.167049;-0.108492
7.460;1.164722;-0.096696
7.470;1.162282;-0.083840
7.480;1.160155;-0.070619
7.490;1.157972;-0.057980
7.500;1.154990;-0.046914
7.510;1.150615;-0.038250
7.520;1.144810;-0.032548
7.530;1.138187;-0.030097
7.540;1.131755;-0.031005
7.550;1.126426;-0.035333
7.560;1.122493;-0.043202
7.570;1.119309;-0.054823
7.580;1.115321;-0.070440
7.590;1.108408;-0.090235
7.600;1.096398;-0.114307
7.610;1.077556;-0.142704
7.620;1.050915;-0.175452
7.630;1.016396;-0.212475
7.640;0.974761;-0.253406
7.650;0.927416;-0.297421
7.660;0.876117;-0.343211
7.670;0.822588;-0.389169
7.680;0.768166;-0.433707
7.690;0.713583;-0.475545
7.700;0.659003;-0.513834
7.710;0.604303;-0.548094
7.720;0.549490;-0.578052
7.730;0.495066;-0.603551
7.740;0.442185;-0.624566
7.750;0.392564;-0.641336
7.760;0.348168;-0.654475
7.770;0.310796;-0.665005
7.780;0.281701;-0.674272
7.790;0.261362;-0.683778
7.800;0.249455;-0.694985
7.810;0.245024;-0.709131
7.820;0.246767;-0.727114
7.830;0.253328;-0.749446
7.840;0.263504;-0.776299
7.850;0.276317;-0.807592
7.860;0.290966;-0.843088
7.870;0.306746;-0.882467
7.880;0.323007;-0.925409
7.890;0.339205;-0.971693
7.900;0.355025;-1.021285
7.910;0.370502;-1.074353
7.920;0.386061;-1.131152
7.930;0.402448;-1.191802
7.940;0.420549;-1.256004
7.950;0.441139;-1.322795
7.960;0.464657;-1.390436
7.970;0.491069;-1.456513
7.980;0.519891;-1.518268
7.990;0.550352;-1.573142
8.000;0.581649;-1.619397
8.010;0.613192;-1.656635
8.020;0.644788;-1.685994
8.030;0.676707;-1.709894
8.040;0.709652;-1.731378
