Time[s];COPx[cm];COPy[cm]
0.010;-1.341428;-2.532684
0.020;-1.408322;-2.490457
0.030;-1.469610;-2.449698
0.040;-1.520961;-2.411248
0.050;-1.558847;-2.375568
0.060;-1.580858;-2.342777
0.070;-1.585864;-2.312799
0.080;-1.574004;-2.285516
0.090;-1.546516;-2.260842
0.100;-1.505468;-2.238689
0.110;-1.453447;-2.218864
0.120;-1.393257;-2.200989
0.130;-1.327660;-2.184536
0.140;-1.259224;-2.169013
0.150;-1.190303;-2.154199
0.160;-1.123115;-2.140283
0.170;-1.059823;-2.127771
0.180;-1.002495;-2.117220
0.190;-0.952926;-2.108919
0.200;-0.912424;-2.102718
0.210;-0.881685;-2.098054
0.220;-0.860858;-2.094142
0.230;-0.849719;-2.090212
0.240;-0.847806;-2.085691
0.250;-0.854437;-2.080289
0.260;-0.868640;-2.073991
0.270;-0.889100;-2.066992
0.280;-0.914196;-2.059614
0.290;-0.942149;-2.052221
0.300;-0.971195;-2.045170
0.310;-0.999724;-2.038785
0.320;-1.026336;-2.033307
0.330;-1.049821;-2.028828
0.340;-1.069146;-2.025227
0.350;-1.083470;-2.022167
0.360;-1.092199;-2.019155
0.370;-1.095070;-2.015638
0.380;-1.092215;-2.011082
0.390;-1.084185;-2.005005
0.400;-1.071922;-1.997012
0.410;-1.056660;-1.986851
0.420;-1.039773;-1.974476
0.430;-1.022618;-1.960108
0.440;-1.006467;-1.944239
0.450;-0.992540;-1.927563
0.460;-0.982127;-1.910860
0.470;-0.976659;-1.894840
0.480;-0.977643;-1.880010
0.490;-0.986397;-1.866581
0.500;-1.003693;-1.854445
0.510;-1.029514;-1.843190
0.520;-1.063095;-1.832185
0.530;-1.103271;-1.820744
0.540;-1.148936;-1.808351
0.550;-1.199384;-1.794866
0.560;-1.254350;-1.780611
0.570;-1.313790;-1.766312
0.580;-1.377529;-1.752918
0.590;-1.444974;-1.741348
0.600;-1.515026;-1.732230
0.610;-1.586221;-1.725723
0.620;-1.657015;-1.721512
0.630;-1.726051;-1.718987
0.640;-1.792283;-1.717517
0.650;-1.854917;-1.716695
0.660;-1.913224;-1.716437
0.670;-1.966376;-1.716884
0.680;-2.013421;-1.718168
0.690;-2.053448;-1.720190
0.700;-2.085865;-1.722551
0.710;-2.110630;-1.724674
0.720;-2.128302;-1.726061
0.730;-2.139885;-1.726562
0.740;-2.146564;-1.726545
0.750;-2.149472;-1.726887
0.760;-2.149579;-1.728775
0.770;-2.147718;-1.733366
0.780;-2.144711;-1.741441
0.790;-2.141519;-1.753187
0.800;-2.139333;-1.768225
0.810;-2.139572;-1.785848
0.820;-2.143780;-1.805376
0.830;-2.153500;-1.826441
0.840;-2.170181;-1.849100
0.850;-2.195153;-1.873745
0.860;-2.229627;-1.900823
0.870;-2.274676;-1.930470
0.880;-2.331103;-1.962166
0.890;-2.399172;-1.994568
0.900;-2.478274;-2.025612
0.910;-2.566677;-2.052856
0.920;-2.661538;-2.074001
0.930;-2.759268;-2.087432
0.940;-2.856152;-2.092627
0.950;-2.948999;-2.090292
0.960;-3.035623;-2.082141
0.970;-3.115017;-2.070428
0.980;-3.187223;-2.057387
0.990;-3.253002;-2.044827
1.000;-3.313415;-2.033962
1.010;-3.369400;-2.025509
1.020;-3.421453;-2.019904
1.030;-3.469482;-2.017526
1.040;-3.512913;-2.018806
1.050;-3.551037;-2.024216
1.060;-3.583462;-2.034137
1.070;-3.610478;-2.048723
1.080;-3.633181;-2.067814
1.090;-3.653302;-2.090936
1.100;-3.672859;-2.117333
1.110;-3.693783;-2.145985
1.120;-3.717674;-2.175612
1.130;-3.745723;-2.204701
1.140;-3.778730;-2.231641
1.150;-3.817110;-2.254992
1.160;-3.860815;-2.273849
1.170;-3.909199;-2.288130
1.180;-3.960952;-2.298626
1.190;-4.014201;-2.306725
1.200;-4.066796;-2.313890
1.210;-4.116674;-2.321145
1.220;-4.162136;-2.328807
1.230;-4.201919;-2.336548
1.240;-4.235057;-2.343713
1.250;-4.260589;-2.349714
1.260;-4.277232;-2.354371
1.270;-4.283167;-2.358137
1.280;-4.276024;-2.362152
1.290;-4.253117;-2.368132
1.300;-4.211839;-2.378086
1.310;-4.150116;-2.393940
1.320;-4.066739;-2.417169
1.330;-3.961501;-2.448576
1.340;-3.835125;-2.488250
1.350;-3.689106;-2.535680
1.360;-3.525575;-2.589921
1.370;-3.347268;-2.649745
1.380;-3.157559;-2.713755
1.390;-2.960481;-2.780512
1.400;-2.760666;-2.848660
1.410;-2.563153;-2.917059
1.420;-2.373123;-2.984876
1.430;-2.195622;-3.051558
1.440;-2.035365;-3.116623
1.450;-1.896667;-3.179303
1.460;-1.783451;-3.238214
1.470;-1.699199;-3.291284
1.480;-1.646749;-3.336060
1.490;-1.627947;-3.370290
1.500;-1.643255;-3.392529
1.510;-1.691463;-3.402477
1.520;-1.769597;-3.400970
1.530;-1.873078;-3.389673
1.540;-1.996138;-3.370634
1.550;-2.132480;-3.345879
1.560;-2.276078;-3.317194
1.570;-2.421922;-3.286139
1.580;-2.566440;-3.254204
1.590;-2.707441;-3.222958
1.600;-2.843588;-3.194032
1.610;-2.973598;-3.168889
1.620;-3.095486;-3.148499
1.630;-3.206175;-3.133109
1.640;-3.301656;-3.122270
1.650;-3.377704;-3.115128
1.660;-3.430906;-3.110888
1.670;-3.459638;-3.109243
1.680;-3.464618;-3.110580
1.690;-3.448884;-3.115890
1.700;-3.417225;-3.126401
1.710;-3.375288;-3.143091
1.720;-3.328637;-3.166242
1.730;-3.281967;-3.195157
1.740;-3.238573;-3.228085
1.750;-3.200119;-3.262394
1.760;-3.166681;-3.294956
1.770;-3.137040;-3.322698
1.780;-3.109160;-3.343229
1.790;-3.080754;-3.355333
1.800;-3.049811;-3.359188
1.810;-3.014938;-3.356167
1.820;-2.975425;-3.348313
1.830;-2.931039;-3.337716
1.840;-2.881704;-3.326066
1.850;-2.827204;-3.314542
1.860;-2.767040;-3.303988
1.870;-2.700450;-3.295174
1.880;-2.626563;-3.288957
1.890;-2.544647;-3.286214
1.900;-2.454343;-3.287612
1.910;-2.355828;-3.293365
1.920;-2.249823;-3.303146
1.930;-2.137471;-3.316206
1.940;-2.020148;-3.331633
1.950;-1.899314;-3.348636
1.960;-1.776458;-3.366706
1.970;-1.653149;-3.385608
1.980;-1.531130;-3.405245
1.990;-1.412362;-3.425486
2.000;-1.298971;-3.446068
2.010;-1.193073;-3.466575
2.020;-1.096535;-3.486471
2.030;-1.010722;-3.505133
2.040;-0.936321;-3.521895
2.050;-0.873319;-3.536103
2.060;-0.821163;-3.547201
2.070;-0.779039;-3.554842
2.080;-0.746136;-3.558991
2.090;-0.721794;-3.559947
2.100;-0.705483;-3.558280
2.110;-0.696668;-3.554689
2.120;-0.694638;-3.549830
2.130;-0.698414;-3.544150
2.140;-0.706821;-3.537752
2.150;-0.718713;-3.530369
2.160;-0.733243;-3.521475
2.170;-0.750028;-3.510540
2.180;-0.769076;-3.497314
2.190;-0.790520;-3.481991
2.200;-0.814279;-3.465154
2.210;-0.839862;-3.447550
2.220;-0.866452;-3.429807
2.230;-0.893265;-3.412231
2.240;-0.920018;-3.394785
2.250;-0.947268;-3.377217
2.260;-0.976419;-3.359264
2.270;-1.009379;-3.340811
2.280;-1.047968;-3.321890
2.290;-1.093341;-3.302520
2.300;-1.145674;-3.282457
2.310;-1.204291;-3.261021
2.320;-1.268197;-3.237140
2.330;-1.336752;-3.209616
2.340;-1.410161;-3.177496
2.350;-1.489483;-3.140395
2.360;-1.576119;-3.098645
2.370;-1.670936;-3.053266
2.380;-1.773378;-3.005762
2.390;-1.880942;-2.957832
2.400;-1.989350;-2.911088
2.410;-2.093461;-2.866900
2.420;-2.188596;-2.826375
2.430;-2.271703;-2.790413
2.440;-2.341879;-2.759716
2.450;-2.400119;-2.734700
2.460;-2.448565;-2.715324
2.470;-2.489694;-2.700925
2.480;-2.525738;-2.690180
2.490;-2.558471;-2.681298
2.500;-2.589293;-2.672445
2.510;-2.619470;-2.662312
2.520;-2.650403;-2.650587
2.530;-2.683800;-2.638128
2.540;-2.721668;-2.626691
2.550;-2.766109;-2.618261
2.560;-2.818925;-2.614218
2.570;-2.881125;-2.614696
2.580;-2.952450;-2.618427
2.590;-3.031098;-2.623179
2.600;-3.113830;-2.626619
2.610;-3.196509;-2.627214
2.620;-3.274942;-2.624758
2.630;-3.345731;-2.620307
2.640;-3.406795;-2.615588
2.650;-3.457413;-2.612262
2.660;-3.497829;-2.611352
2.670;-3.528686;-2.613045
2.680;-3.550532;-2.616842
2.690;-3.563573;-2.621925
2.700;-3.567695;-2.627551
2.710;-3.562666;-2.633296
2.720;-3.548384;-2.639073
2.730;-3.525055;-2.644970
2.740;-3.493239;-2.651005
2.750;-3.453794;-2.656928
2.760;-3.407794;-2.662148
2.770;-3.356474;-2.665810
2.780;-3.301245;-2.666997
2.790;-3.243760;-2.665008
2.800;-3.185974;-2.659566
2.810;-3.130145;-2.650854
2.820;-3.078712;-2.639324
2.830;-3.034063;-2.625394
2.840;-2.998225;-2.609185
2.850;-2.972587;-2.590461
2.860;-2.957742;-2.568798
2.870;-2.953499;-2.543880
2.880;-2.959021;-2.515811
2.890;-2.973032;-2.485275
2.900;-2.994033;-2.453476
2.910;-3.020463;-2.421814
2.920;-3.050763;-2.391411
2.930;-3.083359;-2.362662
2.940;-3.116596;-2.335021
2.950;-3.148658;-2.307124
2.960;-3.177527;-2.277260
2.970;-3.200985;-2.244010
2.980;-3.216711;-2.206808
2.990;-3.222462;-2.166196
3.000;-3.216335;-2.123672
3.010;-3.197037;-2.081199
3.020;-3.164075;-2.040595
3.030;-3.117804;-2.003081
3.040;-3.059298;-1.969127
3.050;-2.990079;-1.938559
3.060;-2.911810;-1.910817
3.070;-2.826102;-1.885208
3.080;-2.734509;-1.861108
3.090;-2.638660;-1.838093
3.100;-2.540401;-1.816010
3.110;-2.441793;-1.794975
3.120;-2.344932;-1.775283
3.130;-2.251679;-1.757285
3.140;-2.163430;-1.741293
3.150;-2.080993;-1.727567
3.160;-2.004600;-1.716373
3.170;-1.934006;-1.708003
3.180;-1.868599;-1.702698
3.190;-1.807510;-1.700490
3.200;-1.749734;-1.701107
3.210;-1.694302;-1.704067
3.220;-1.640509;-1.708961
3.230;-1.588098;-1.715771
3.240;-1.537323;-1.725009
3.250;-1.488800;-1.737581
3.260;-1.443181;-1.754470
3.270;-1.400780;-1.776427
3.280;-1.361334;-1.803798
3.290;-1.324040;-1.836516
3.300;-1.287855;-1.874168
3.310;-1.251955;-1.916070
3.320;-1.216123;-1.961312
3.330;-1.180907;-2.008814
3.340;-1.147493;-2.057437
3.350;-1.117345;-2.106129
3.360;-1.091769;-2.154064
3.370;-1.071564;-2.200684
3.380;-1.056874;-2.245630
3.390;-1.047311;-2.288571
3.400;-1.042272;-2.329047
3.410;-1.041340;-2.366416
3.420;-1.044558;-2.399970
3.430;-1.052454;-2.429184
3.440;-1.065767;-2.453981
3.450;-1.085009;-2.474877
3.460;-1.110026;-2.492894
3.470;-1.139781;-2.509229
3.480;-1.172437;-2.524800
3.490;-1.205721;-2.539884
3.500;-1.237413;-2.554013
3.510;-1.265761;-2.566206
3.520;-1.289678;-2.575409
3.530;-1.308716;-2.580924
3.540;-1.322840;-2.582650
3.550;-1.332131;-2.581044
3.560;-1.336506;-2.576873
3.570;-1.335582;-2.570884
3.580;-1.328726;-2.563517
3.590;-1.315268;-2.554778
3.600;-1.294772;-2.544301
3.610;-1.267254;-2.531591
3.620;-1.233282;-2.516323
3.630;-1.193938;-2.498540
3.640;-1.150674;-2.478640
3.650;-1.105125;-2.457220
3.660;-1.058936;-2.434886
3.670;-1.013651;-2.412169
3.680;-0.970671;-2.389538
3.690;-0.931271;-2.367414
3.700;-0.896620;-2.346127
3.710;-0.867763;-2.325807
3.720;-0.845545;-2.306331
3.730;-0.830524;-2.287382
3.740;-0.822891;-2.268644
3.750;-0.822449;-2.250051
3.760;-0.828642;-2.231947
3.770;-0.840620;-2.215049
3.780;-0.857343;-2.200221
3.790;-0.877692;-2.188137
3.800;-0.900575;-2.178992
3.810;-0.925017;-2.172376
3.820;-0.950206;-2.167370
3.830;-0.975493;-2.162831
3.840;-1.000325;-2.157753
3.850;-1.024135;-2.151552
3.860;-1.046230;-2.144182
3.870;-1.065735;-2.136026
3.880;-1.081653;-2.127650
3.890;-1.093076;-2.119529
3.900;-1.099446;-2.111892
3.910;-1.100786;-2.104709
3.920;-1.097778;-2.097791
3.930;-1.091680;-2.090899
3.940;-1.084141;-2.083808
3.950;-1.076967;-2.076352
3.960;-1.071893;-2.068470
3.970;-1.070356;-2.060293
3.980;-1.073337;-2.052157
3.990;-1.081306;-2.044481
4.000;-1.094347;-2.037473
4.010;-1.112442;-2.030782
4.020;-1.135844;-2.023253
4.030;-1.165434;-2.012942
4.040;-1.202919;-1.997456
4.050;-1.250782;-1.974617
4.060;-1.311908;-1.943299
4.070;-1.388933;-1.904230
4.080;-1.483445;-1.860421
4.090;-1.595254;-1.816923
4.100;-1.722036;-1.779810
4.110;-1.859542;-1.754564
4.120;-2.002403;-1.744393
4.130;-2.145263;-1.749149
4.140;-2.283834;-1.765372
4.150;-2.415463;-1.787526
4.160;-2.539083;-1.809923
4.170;-2.654660;-1.828552
4.180;-2.762438;-1.842104
4.190;-2.862314;-1.851928
4.200;-2.953507;-1.861142
4.210;-3.034604;-1.873361
4.220;-3.103907;-1.891522
4.230;-3.159970;-1.917106
4.240;-3.202128;-1.949879
4.250;-3.230838;-1.988106
4.260;-3.247716;-2.029089
4.270;-3.255280;-2.069866
4.280;-3.256497;-2.107900
4.290;-3.254307;-2.141591
4.300;-3.251270;-2.170515
4.310;-3.249428;-2.195282
4.320;-3.250314;-2.217075
4.330;-3.255041;-2.237005
4.340;-3.264371;-2.255546
4.350;-3.278764;-2.272270
4.360;-3.298464;-2.285964
4.370;-3.323647;-2.295097
4.380;-3.354577;-2.298438
4.390;-3.391684;-2.295586
4.400;-3.435446;-2.287197
4.410;-3.486072;-2.274842
4.420;-3.543072;-2.260567
4.430;-3.604901;-2.246356
4.440;-3.668857;-2.233677
4.450;-3.731357;-2.223218
4.460;-3.788542;-2.214886
4.470;-3.836988;-2.208052
4.480;-3.874282;-2.201945
4.490;-3.899250;-2.196055
4.500;-3.911807;-2.190338
4.510;-3.912519;-2.185177
4.520;-3.902089;-2.181088
4.530;-3.880923;-2.178386
4.540;-3.848921;-2.176982
4.550;-3.805538;-2.176484
4.560;-3.750095;-2.176556
4.570;-3.682228;-2.177323
4.580;-3.602298;-2.179575
4.590;-3.511638;-2.184629
4.600;-3.412574;-2.193888
4.610;-3.308247;-2.208324
4.620;-3.202319;-2.228105
4.630;-3.098667;-2.252527
4.640;-3.001176;-2.280242
4.650;-2.913657;-2.309636
4.660;-2.839820;-2.339217
4.670;-2.783162;-2.367929
4.680;-2.746704;-2.395342
4.690;-2.732570;-2.421674
4.700;-2.741548;-2.447638
4.710;-2.772786;-2.474124
4.720;-2.823828;-2.501789
4.730;-2.891078;-2.530675
4.740;-2.970654;-2.560016
4.750;-3.059396;-2.588358
4.760;-3.155668;-2.614026
4.770;-3.259605;-2.635823
4.780;-3.372677;-2.653703
4.790;-3.496677;-2.669123
4.800;-3.632462;-2.684924
4.810;-3.778775;-2.704678
4.820;-3.931557;-2.731654
4.830;-4.084043;-2.767659
4.840;-4.227827;-2.812171
4.850;-4.354671;-2.862217
4.860;-4.458466;-2.913191
4.870;-4.536565;-2.960412
4.880;-4.589971;-3.000754
4.890;-4.622437;-3.033607
4.900;-4.638982;-3.060816
4.910;-4.644481;-3.085770
4.920;-4.642740;-3.112136
4.930;-4.636163;-3.142750
4.940;-4.625931;-3.178943
4.950;-4.612479;-3.220388
4.960;-4.596065;-3.265338
4.970;-4.577233;-3.311095
4.980;-4.557044;-3.354604
4.990;-4.537030;-3.393072
5.000;-4.518955;-3.424560
5.010;-4.504507;-3.448400
5.020;-4.495011;-3.465299
5.030;-4.491210;-3.477029
5.040;-4.493107;-3.485773
5.050;-4.499897;-3.493371
5.060;-4.510041;-3.500750
5.070;-4.521501;-3.507782
5.080;-4.532145;-3.513604
5.090;-4.540233;-3.517238
5.100;-4.544819;-3.518234
5.110;-4.545882;-3.517049
5.120;-4.544054;-3.514985
5.130;-4.540029;-3.513712
5.140;-4.533901;-3.514602
5.150;-4.524729;-3.518179
5.160;-4.510530;-3.523889
5.170;-4.488730;-3.530281
5.180;-4.456869;-3.535511
5.190;-4.413248;-3.537979
5.200;-4.357232;-3.536860
5.210;-4.289118;-3.532322
5.220;-4.209688;-3.525364
5.230;-4.119735;-3.517349
5.240;-4.019828;-3.509480
5.250;-3.910457;-3.502444
5.260;-3.792448;-3.496348
5.270;-3.667392;-3.490891
5.280;-3.537775;-3.485609
5.290;-3.406709;-3.480039
5.300;-3.277363;-3.473740
5.310;-3.152385;-3.466205
5.320;-3.033589;-3.456785
5.330;-2.922054;-3.444690
5.340;-2.818561;-3.429110
5.350;-2.724145;-3.409364
5.360;-2.640473;-3.385053
5.370;-2.569876;-3.356141
5.380;-2.515008;-3.322976
5.390;-2.478276;-3.286277
5.400;-2.461239;-3.247140
5.410;-2.464175;-3.207039
5.420;-2.485893;-3.167768
5.430;-2.523826;-3.131238
5.440;-2.574356;-3.099140
5.450;-2.633322;-3.072549
5.460;-2.696626;-3.051653
5.470;-2.760800;-3.035695
5.480;-2.823371;-3.023189
5.490;-2.882936;-3.012321
5.500;-2.938970;-3.001407
5.510;-2.991490;-2.989266
5.520;-3.040730;-2.975435
5.530;-3.086897;-2.960197
5.540;-3.130025;-2.944428
5.550;-3.169922;-2.929312
5.560;-3.206238;-2.915972
5.570;-3.238691;-2.905134
5.580;-3.267413;-2.896893
5.590;-3.293331;-2.890630
5.600;-3.318409;-2.885104
5.610;-3.345646;-2.878642
5.620;-3.378742;-2.869377
5.630;-3.421492;-2.855449
5.640;-3.477021;-2.835142
5.650;-3.547067;-2.806995
5.660;-3.631508;-2.769985
5.670;-3.728276;-2.723814
5.680;-3.833737;-2.669228
5.690;-3.943475;-2.608127
5.700;-4.053295;-2.543316
5.710;-4.160068;-2.477936
5.720;-4.262067;-2.414834
5.730;-4.358614;-2.356134
5.740;-4.449206;-2.303079
5.750;-4.532593;-2.256083
5.760;-4.606315;-2.214833
5.770;-4.666996;-2.178405
5.780;-4.711320;-2.145402
5.790;-4.737245;-2.114193
5.800;-4.744847;-2.083259
5.810;-4.736376;-2.051540
5.820;-4.715511;-2.018629
5.830;-4.686171;-1.984674
5.840;-4.651386;-1.950049
5.850;-4.612611;-1.914925
5.860;-4.569661;-1.878958
5.870;-4.521182;-1.841229
5.880;-4.465470;-1.800479
5.890;-4.401287;-1.755587
5.900;-4.328401;-1.706095
5.910;-4.247693;-1.652585
5.920;-4.160837;-1.596696
5.930;-4.069799;-1.540758
5.940;-3.976379;-1.487182
5.950;-3.881972;-1.437890
5.960;-3.787564;-1.394005
5.970;-3.693875;-1.355900
5.980;-3.601510;-1.323505
5.990;-3.511048;-1.296664
6.000;-3.423047;-1.275315
6.010;-3.338028;-1.259418
6.020;-3.256487;-1.248710
6.030;-3.178959;-1.242471
6.040;-3.106086;-1.239495
6.050;-3.038657;-1.238340
6.060;-2.977553;-1.237789
6.070;-2.923592;-1.237342
6.080;-2.877304;-1.237472
6.090;-2.838705;-1.239484
6.100;-2.807157;-1.244979
6.110;-2.781396;-1.255170
6.120;-2.759757;-1.270348
6.130;-2.740524;-1.289742
6.140;-2.722275;-1.311811
6.150;-2.704062;-1.334797
6.160;-2.685347;-1.357247
6.170;-2.665706;-1.378327
6.180;-2.644488;-1.397883
6.190;-2.620600;-1.416319
6.200;-2.592587;-1.434381
6.210;-2.558978;-1.452904
6.220;-2.518789;-1.472621
6.230;-2.471946;-1.494080
6.240;-2.419460;-1.517693
6.250;-2.363263;-1.543894
6.260;-2.305777;-1.573318
6.270;-2.249405;-1.606904
6.280;-2.196105;-1.645812
6.290;-2.147167;-1.691086
6.300;-2.103171;-1.743183
6.310;-2.064139;-1.801555
6.320;-2.029842;-1.864563
6.330;-2.000161;-1.929824
6.340;-1.975352;-1.994898
6.350;-1.956067;-2.057987
6.360;-1.943121;-2.118346
6.370;-1.937109;-2.176213
6.380;-1.938041;-2.232292
6.390;-1.945154;-2.287045
6.400;-1.956971;-2.340151
6.410;-1.971631;-2.390425
6.420;-1.987391;-2.436230
6.430;-2.003121;-2.476155
6.440;-2.018587;-2.509609
6.450;-2.034379;-2.537081
6.460;-2.051508;-2.559977
6.470;-2.070861;-2.580146
6.480;-2.092790;-2.599329
6.490;-2.117018;-2.618710
6.500;-2.142878;-2.638709
6.510;-2.169712;-2.659027
6.520;-2.197205;-2.678925
6.530;-2.225475;-2.697605
6.540;-2.254940;-2.714543
6.550;-2.286094;-2.729635
6.560;-2.319334;-2.743150
6.570;-2.354925;-2.755594
6.580;-2.393065;-2.767582
6.590;-2.433986;-2.779743
6.600;-2.477980;-2.792618
6.610;-2.525298;-2.806531
6.620;-2.575925;-2.821466
6.630;-2.629326;-2.837031
6.640;-2.684289;-2.852554
6.650;-2.739006;-2.867334
6.660;-2.791381;-2.880920
6.670;-2.839490;-2.893306
6.680;-2.881980;-2.904931
6.690;-2.918245;-2.916540
6.700;-2.948312;-2.928964
6.710;-2.972507;-2.942907
6.720;-2.991111;-2.958790
6.730;-3.004167;-2.976670
6.740;-3.011532;-2.996278
6.750;-3.013108;-3.017133
6.760;-3.009114;-3.038679
6.770;-3.000259;-3.060375
6.780;-2.987768;-3.081725
6.790;-2.973281;-3.102282
6.800;-2.958692;-3.121625
6.810;-2.945967;-3.139328
6.820;-2.936997;-3.154938
6.830;-2.933477;-3.168019
6.840;-2.936821;-3.178310
6.850;-2.948134;-3.185957
6.860;-2.968267;-3.191693
6.870;-2.997953;-3.196790
6.880;-3.037997;-3.202724
6.890;-3.089428;-3.210613
6.900;-3.153507;-3.220647
6.910;-3.231505;-3.231785
6.920;-3.324206;-3.241899
6.930;-3.431216;-3.248348
6.940;-3.550265;-3.248801
6.950;-3.676824;-3.242010
6.960;-3.804348;-3.228259
6.970;-3.925297;-3.209330
6.980;-4.032703;-3.188013
6.990;-4.121693;-3.167364
7.000;-4.190309;-3.150011
7.010;-4.239302;-3.137735
7.020;-4.271089;-3.131416
7.030;-4.288387;-3.131227
7.040;-4.293088;-3.136927
7.050;-4.285720;-3.148064
7.060;-4.265582;-3.164046
7.070;-4.231379;-3.184102
7.080;-4.182080;-3.207272
7.090;-4.117651;-3.232457
7.100;-4.039449;-3.258575
7.110;-3.950187;-3.284726
7.120;-3.853557;-3.310304
7.130;-3.753663;-3.335001
7.140;-3.654477;-3.358672
7.150;-3.559488;-3.381113
7.160;-3.471600;-3.401810
7.170;-3.393231;-3.419823
7.180;-3.326484;-3.433874
7.190;-3.273246;-3.442632
7.200;-3.235099;-3.445058
7.210;-3.213079;-3.440679
7.220;-3.207368;-3.429676
7.230;-3.217102;-3.412780
7.240;-3.240405;-3.391020
7.250;-3.274623;-3.365405
7.260;-3.316686;-3.336682
7.270;-3.363470;-3.305282
7.280;-3.412098;-3.271492
7.290;-3.460135;-3.235765
7.300;-3.505664;-3.198998
7.310;-3.547275;-3.162597
7.320;-3.583972;-3.128272
7.330;-3.615059;-3.097633
7.340;-3.640023;-3.071800
7.350;-3.658498;-3.051196
7.360;-3.670282;-3.035612
7.370;-3.675411;-3.024464
7.380;-3.674225;-3.017057
7.390;-3.667396;-3.012766
7.400;-3.655931;-3.011108
7.410;-3.641133;-3.011770
7.420;-3.624540;-3.014608
7.430;-3.607817;-3.019566
7.440;-3.592596;-3.026521
7.450;-3.580285;-3.035131
7.460;-3.571870;-3.044775
7.470;-3.567821;-3.054609
7.480;-3.568125;-3.063740
7.490;-3.572465;-3.071425
7.500;-3.580457;-3.077240
7.510;-3.591841;-3.081106
7.520;-3.606524;-3.083197
7.530;-3.624416;-3.083826
7.540;-3.645148;-3.083371
7.550;-3.667794;-3.082282
7.560;-3.690803;-3.081073
7.570;-3.712189;-3.080275
7.580;-3.729932;-3.080350
7.590;-3.742453;-3.081617
7.600;-3.748978;-3.084223
7.610;-3.749649;-3.088186
7.620;-3.745373;-3.093455
7.630;-3.737486;-3.099966
7.640;-3.727357;-3.107660
7.650;-3.716081;-3.116426
7.660;-3.704336;-3.126022
7.670;-3.692465;-3.136014
7.680;-3.680747;-3.145794
