Time[s];COPx[cm];COPy[cm]
0.010;-1.441849;0.943328
0.020;-1.436380;0.952757
0.030;-1.431156;0.962000
0.040;-1.426370;0.970804
0.050;-1.422169;0.978954
0.060;-1.418681;0.986402
0.070;-1.416018;0.993380
0.080;-1.414216;1.000420
0.090;-1.413134;1.008200
0.100;-1.412398;1.017240
0.110;-1.411456;1.027584
0.120;-1.409747;1.038644
0.130;-1.406868;1.049344
0.140;-1.402666;1.058518
0.150;-1.397202;1.065339
0.160;-1.390639;1.069575
0.170;-1.383104;1.071545
0.180;-1.374608;1.071900
0.190;-1.365044;1.071358
0.200;-1.354260;1.070527
0.210;-1.342170;1.069832
0.220;-1.328817;1.069518
0.230;-1.314378;1.069690
0.240;-1.299100;1.070375
0.250;-1.283216;1.071570
0.260;-1.266899;1.073246
0.270;-1.250281;1.075307
0.280;-1.233482;1.077527
0.290;-1.216608;1.079514
0.300;-1.199701;1.080781
0.310;-1.182712;1.080898
0.320;-1.165543;1.079676
0.330;-1.148153;1.077235
0.340;-1.130663;1.073917
0.350;-1.113394;1.070074
0.360;-1.096805;1.065893
0.370;-1.081342;1.061337
0.380;-1.067306;1.056241
0.390;-1.054793;1.050467
0.400;-1.043745;1.044044
0.410;-1.034072;1.037208
0.420;-1.025763;1.030327
0.430;-1.018945;1.023759
0.440;-1.013857;1.017702
0.450;-1.010769;1.012129
0.460;-1.009907;1.006802
0.470;-1.011430;1.001363
0.480;-1.015454;0.995463
0.490;-1.022060;0.988896
0.500;-1.031268;0.981688
0.510;-1.042975;0.974067
0.520;-1.056907;0.966333
0.530;-1.072656;0.958692
0.540;-1.089803;0.951162
0.550;-1.108071;0.943611
0.560;-1.127420;0.935896
0.570;-1.148024;0.928031
0.580;-1.170140;0.920282
0.590;-1.193919;0.913144
0.600;-1.219222;0.907195
0.610;-1.245545;0.902882
0.620;-1.272084;0.900320
0.630;-1.297942;0.899197
0.640;-1.322353;0.898829
0.650;-1.344796;0.898341
0.660;-1.364966;0.896955
0.670;-1.382633;0.894279
0.680;-1.397530;0.890514
0.690;-1.409320;0.886458
0.700;-1.417697;0.883276
0.710;-1.422528;0.882105
0.720;-1.423958;0.883642
0.730;-1.422412;0.887892
0.740;-1.418508;0.894139
0.750;-1.412906;0.901181
0.760;-1.406149;0.907709
0.770;-1.398561;0.912719
0.780;-1.390244;0.915824
0.790;-1.381170;0.917363
0.800;-1.371308;0.918257
0.810;-1.360703;0.919654
0.820;-1.349482;0.922504
0.830;-1.337815;0.927252
0.840;-1.325873;0.933754
0.850;-1.313813;0.941425
0.860;-1.301794;0.949522
0.870;-1.289990;0.957429
0.880;-1.278586;0.964836
0.890;-1.267758;0.971751
0.900;-1.257631;0.978377
0.910;-1.248233;0.984924
0.920;-1.239453;0.991473
0.930;-1.231028;0.997966
0.940;-1.222587;1.004329
0.950;-1.213730;1.010639
0.960;-1.204152;1.017200
0.970;-1.193750;1.024456
0.980;-1.182708;1.032749
0.990;-1.171515;1.042043
1.000;-1.160904;1.051795
1.010;-1.151742;1.061052
1.020;-1.144873;1.068754
1.030;-1.140971;1.074109
1.040;-1.140414;1.076857
1.050;-1.143195;1.077338
1.060;-1.148909;1.076316
1.070;-1.156819;1.074680
1.080;-1.166020;1.073149
1.090;-1.175627;1.072124
1.100;-1.184922;1.071709
1.110;-1.193380;1.071805
1.120;-1.200606;1.072196
1.130;-1.206237;1.072580
1.140;-1.209901;1.072585
1.150;-1.211263;1.071846
1.160;-1.210142;1.070093
1.170;-1.206626;1.067258
1.180;-1.201118;1.063534
1.190;-1.194286;1.059382
1.200;-1.186912;1.055424
1.210;-1.179711;1.052222
1.220;-1.173175;1.050038
1.230;-1.167534;1.048704
1.240;-1.162838;1.047662
1.250;-1.159094;1.046156
1.260;-1.156368;1.043480
1.270;-1.154761;1.039151
1.280;-1.154301;1.032961
1.290;-1.154853;1.024914
1.300;-1.156133;1.015134
1.310;-1.157841;1.003840
1.320;-1.159826;0.991365
1.330;-1.162190;0.978169
1.340;-1.165248;0.964790
1.350;-1.169386;0.951727
1.360;-1.174911;0.939308
1.370;-1.181947;0.927610
1.380;-1.190413;0.916479
1.390;-1.200049;0.905654
1.400;-1.210475;0.894938
1.410;-1.221276;0.884297
1.420;-1.232120;0.873824
1.430;-1.242855;0.863606
1.440;-1.253549;0.853617
1.450;-1.264442;0.843746
1.460;-1.275861;0.833952
1.470;-1.288124;0.824424
1.480;-1.301455;0.815601
1.490;-1.315940;0.807999
1.500;-1.331510;0.801942
1.510;-1.347956;0.797364
1.520;-1.364944;0.793812
1.530;-1.382056;0.790671
1.540;-1.398819;0.787475
1.550;-1.414760;0.784084
1.560;-1.429464;0.780630
1.570;-1.442635;0.777291
1.580;-1.454149;0.774093
1.590;-1.464071;0.770888
1.600;-1.472601;0.767497
1.610;-1.479961;0.763897
1.620;-1.486267;0.760273
1.630;-1.491466;0.756888
1.640;-1.495365;0.753844
1.650;-1.497747;0.750927
1.660;-1.498476;0.747680
1.670;-1.497565;0.743694
1.680;-1.495163;0.738921
1.690;-1.491520;0.733780
1.700;-1.486966;0.729013
1.710;-1.481880;0.725398
1.720;-1.476639;0.723467
1.730;-1.471501;0.723348
1.740;-1.466476;0.724759
1.750;-1.461264;0.727161
1.760;-1.455313;0.730009
1.770;-1.447998;0.732972
1.780;-1.438846;0.736005
1.790;-1.427712;0.739247
1.800;-1.414815;0.742849
1.810;-1.400653;0.746874
1.820;-1.385814;0.751322
1.830;-1.370800;0.756201
1.840;-1.355909;0.761563
1.850;-1.341210;0.767440
1.860;-1.326604;0.773752
1.870;-1.311893;0.780233
1.880;-1.296844;0.786463
1.890;-1.281224;0.791967
1.900;-1.264848;0.796362
1.910;-1.247672;0.799480
1.920;-1.229922;0.801424
1.930;-1.212175;0.802499
1.940;-1.195335;0.803053
1.950;-1.180453;0.803266
1.960;-1.168489;0.803025
1.970;-1.160088;0.801908
1.980;-1.155485;0.799342
1.990;-1.154533;0.794862
2.000;-1.156816;0.788373
2.010;-1.161770;0.780283
2.020;-1.168779;0.771434
2.030;-1.177244;0.762834
2.040;-1.186660;0.755335
2.050;-1.196706;0.749395
2.060;-1.207303;0.745041
2.070;-1.218567;0.742004
2.080;-1.230643;0.739915
2.090;-1.243454;0.738469
2.100;-1.256512;0.737526
2.110;-1.268908;0.737136
2.120;-1.279512;0.737504
2.130;-1.287307;0.738887
2.140;-1.291710;0.741446
2.150;-1.292733;0.745121
2.160;-1.290933;0.749611
2.170;-1.287185;0.754506
2.180;-1.282393;0.759511
2.190;-1.277261;0.764615
2.200;-1.272216;0.770062
2.210;-1.267473;0.776161
2.220;-1.263165;0.783066
2.230;-1.259426;0.790652
2.240;-1.256385;0.798510
2.250;-1.254117;0.806006
2.260;-1.252587;0.812386
2.270;-1.251666;0.816918
2.280;-1.251164;0.819118
2.290;-1.250883;0.818964
2.300;-1.250640;0.816987
2.310;-1.250303;0.814152
2.320;-1.249852;0.811548
2.330;-1.249425;0.810048
2.340;-1.249318;0.810067
2.350;-1.249910;0.811521
2.360;-1.251547;0.813939
2.370;-1.254428;0.816658
2.380;-1.258535;0.819063
2.390;-1.263609;0.820804
2.400;-1.269182;0.821931
2.410;-1.274671;0.822837
2.420;-1.279519;0.824018
2.430;-1.283330;0.825788
2.440;-1.285932;0.828118
2.450;-1.287368;0.830665
2.460;-1.287814;0.832970
2.470;-1.287473;0.834674
2.480;-1.286468;0.835688
2.490;-1.284749;0.836243
2.500;-1.282045;0.836806
2.510;-1.277904;0.837903
2.520;-1.271817;0.839911
2.530;-1.263413;0.842933
2.540;-1.252657;0.846779
2.550;-1.239971;0.851048
2.560;-1.226238;0.855276
2.570;-1.212638;0.859089
2.580;-1.200357;0.862302
2.590;-1.190237;0.864934
2.600;-1.182536;0.867135
2.610;-1.176893;0.869088
2.620;-1.172546;0.870943
2.630;-1.168680;0.872797
2.640;-1.164752;0.874696
2.650;-1.160642;0.876629
2.660;-1.156610;0.878522
2.670;-1.153104;0.880243
2.680;-1.150536;0.881640
2.690;-1.149131;0.882602
2.700;-1.148846;0.883154
2.710;-1.149389;0.883523
2.720;-1.150279;0.884107
2.730;-1.150965;0.885332
2.740;-1.150956;0.887482
2.750;-1.149954;0.890608
2.760;-1.147926;0.894573
2.770;-1.145097;0.899153
2.780;-1.141873;0.904131
2.790;-1.138733;0.909343
2.800;-1.136133;0.914722
2.810;-1.134430;0.920336
2.820;-1.133848;0.926390
2.830;-1.134440;0.933147
2.840;-1.136054;0.940763
2.850;-1.138337;0.949139
2.860;-1.140795;0.957882
2.870;-1.142893;0.966451
2.880;-1.144164;0.974424
2.890;-1.144307;0.981758
2.900;-1.143240;0.988885
2.910;-1.141130;0.996590
2.920;-1.138366;1.005676
2.930;-1.135480;1.016587
2.940;-1.133027;1.029145
2.950;-1.131447;1.042547
2.960;-1.130957;1.055583
2.970;-1.131471;1.066999
2.980;-1.132584;1.075848
2.990;-1.133627;1.081743
3.000;-1.133801;1.084944
3.010;-1.132371;1.086262
3.020;-1.128856;1.086801
3.030;-1.123165;1.087645
3.040;-1.115637;1.089559
3.050;-1.106939;1.092806
3.060;-1.097851;1.097119
3.070;-1.088998;1.101854
3.080;-1.080626;1.106272
3.090;-1.072532;1.109850
3.100;-1.064172;1.112464
3.110;-1.054899;1.114369
3.120;-1.044216;1.115963
3.130;-1.031961;1.117473
3.140;-1.018363;1.118771
3.150;-1.003986;1.119445
3.160;-0.989579;1.119098
3.170;-0.975881;1.117693
3.180;-0.963427;1.115697
3.190;-0.952456;1.113935
3.200;-0.942908;1.113229
3.210;-0.934515;1.114002
3.220;-0.926900;1.116049
3.230;-0.919664;1.118573
3.240;-0.912476;1.120486
3.250;-0.905151;1.120826
3.260;-0.897697;1.119134
3.270;-0.890286;1.115618
3.280;-0.883185;1.111076
3.290;-0.876678;1.106611
3.300;-0.871002;1.103270
3.310;-0.866316;1.101750
3.320;-0.862677;1.102275
3.330;-0.860047;1.104660
3.340;-0.858314;1.108481
3.350;-0.857321;1.113253
3.360;-0.856895;1.118499
3.370;-0.856885;1.123742
3.380;-0.857245;1.128470
3.390;-0.858101;1.132168
3.400;-0.859779;1.134441
3.410;-0.862724;1.135164
3.420;-0.867349;1.134570
3.430;-0.873889;1.133230
3.440;-0.882319;1.131922
3.450;-0.892387;1.131398
3.460;-0.903721;1.132122
3.470;-0.915953;1.134069
3.480;-0.928804;1.136701
3.490;-0.942075;1.139162
3.500;-0.955589;1.140624
3.510;-0.969130;1.140611
3.520;-0.982429;1.139170
3.530;-0.995212;1.136802
3.540;-1.007239;1.134235
3.550;-1.018321;1.132165
3.560;-1.028277;1.131092
3.570;-1.036887;1.131272
3.580;-1.043887;1.132732
3.590;-1.049024;1.135305
3.600;-1.052155;1.138668
3.610;-1.053335;1.142389
3.620;-1.052851;1.146003
3.630;-1.051203;1.149079
3.640;-1.049040;1.151277
3.650;-1.047084;1.152381
3.660;-1.046017;1.152304
3.670;-1.046356;1.151070
3.680;-1.048316;1.148790
3.690;-1.051739;1.145667
3.700;-1.056117;1.142027
3.710;-1.060742;1.138304
3.720;-1.064912;1.134943
3.730;-1.068136;1.132232
3.740;-1.070246;1.130141
3.750;-1.071354;1.128280
3.760;-1.071711;1.126008
3.770;-1.071511;1.122664
3.780;-1.070769;1.117829
3.790;-1.069300;1.111500
3.800;-1.066814;1.104119
3.810;-1.063060;1.096428
3.820;-1.057988;1.089209
3.830;-1.051829;1.083002
3.840;-1.045043;1.077927
3.850;-1.038139;1.073693
3.860;-1.031456;1.069781
3.870;-1.025034;1.065684
3.880;-1.018659;1.061071
3.890;-1.012062;1.055812
3.900;-1.005140;1.049903
3.910;-0.998064;1.043370
3.920;-0.991203;1.036186
3.930;-0.984911;1.028265
3.940;-0.979309;1.019530
3.950;-0.974199;1.010050
3.960;-0.969152;1.000130
3.970;-0.963705;0.990277
3.980;-0.957555;0.981026
3.990;-0.950655;0.972728
4.000;-0.943190;0.965404
4.010;-0.935471;0.958755
4.020;-0.927810;0.952286
4.030;-0.920409;0.945504
4.040;-0.913274;0.938098
4.050;-0.906196;0.930056
4.060;-0.898826;0.921652
4.070;-0.890821;0.913307
4.080;-0.882008;0.905378
4.090;-0.872483;0.898009
4.100;-0.862628;0.891128
4.110;-0.853033;0.884571
4.120;-0.844369;0.878200
4.130;-0.837242;0.871916
4.140;-0.832076;0.865602
4.150;-0.829045;0.859084
4.160;-0.828060;0.852187
4.170;-0.828806;0.844854
4.180;-0.830789;0.837226
4.190;-0.833385;0.829589
4.200;-0.835901;0.822213
4.210;-0.837658;0.815180
4.220;-0.838087;0.808346
4.230;-0.836819;0.801446
4.240;-0.833772;0.794277
4.250;-0.829190;0.786851
4.260;-0.823606;0.779433
4.270;-0.817698;0.772468
4.280;-0.812077;0.766426
4.290;-0.807094;0.761626
4.300;-0.802752;0.758115
4.310;-0.798750;0.755642
4.320;-0.794610;0.753733
4.330;-0.789871;0.751858
4.340;-0.784277;0.749609
4.350;-0.777910;0.746822
4.360;-0.771201;0.743606
4.370;-0.764797;0.740258
4.380;-0.759380;0.737092
4.390;-0.755501;0.734286
4.400;-0.753486;0.731805
4.410;-0.753430;0.729444
4.420;-0.755238;0.726949
4.430;-0.758709;0.724111
4.440;-0.763634;0.720808
4.450;-0.769869;0.716968
4.460;-0.777336;0.712554
4.470;-0.785951;0.707606
4.480;-0.795523;0.702306
4.490;-0.805711;0.697006
4.500;-0.816094;0.692171
4.510;-0.826329;0.688252
4.520;-0.836279;0.685542
4.530;-0.846059;0.684087
4.540;-0.855959;0.683672
4.550;-0.866318;0.683909
4.560;-0.877368;0.684393
4.570;-0.889116;0.684854
4.580;-0.901318;0.685242
4.590;-0.913579;0.685679
4.600;-0.925525;0.686336
4.610;-0.936941;0.687335
4.620;-0.947817;0.688758
4.630;-0.958290;0.690702
4.640;-0.968514;0.693277
4.650;-0.978534;0.696531
4.660;-0.988224;0.700364
4.670;-0.997342;0.704524
4.680;-1.005656;0.708694
4.690;-1.013088;0.712617
4.700;-1.019762;0.716201
4.710;-1.025948;0.719517
4.720;-1.031932;0.722694
4.730;-1.037903;0.725766
4.740;-1.043909;0.728570
4.750;-1.049893;0.730782
4.760;-1.055760;0.732072
4.770;-1.061426;0.732307
4.780;-1.066809;0.731667
4.790;-1.071792;0.730605
4.800;-1.076222;0.729670
4.810;-1.079983;0.729307
4.820;-1.083097;0.729754
4.830;-1.085787;0.731068
4.840;-1.088422;0.733232
4.850;-1.091379;0.736256
4.860;-1.094908;0.740179
4.870;-1.099054;0.745005
4.880;-1.103666;0.750602
4.890;-1.108443;0.756666
4.900;-1.113016;0.762773
4.910;-1.117046;0.768492
4.920;-1.120302;0.773523
4.930;-1.122675;0.777823
4.940;-1.124108;0.781661
4.950;-1.124501;0.785542
4.960;-1.123671;0.790004
4.970;-1.121442;0.795385
4.980;-1.117843;0.801664
4.990;-1.113280;0.808470
5.000;-1.108547;0.815242
5.010;-1.104615;0.821477
5.020;-1.102265;0.826945
5.030;-1.101748;0.831776
5.040;-1.102661;0.836367
5.050;-1.104115;0.841143
5.060;-1.105096;0.846293
5.070;-1.104825;0.851641
5.080;-1.102958;0.856726
5.090;-1.099597;0.861065
5.100;-1.095177;0.864440
5.110;-1.090341;0.867063
5.120;-1.085835;0.869519
5.130;-1.082383;0.872525
5.140;-1.080511;0.876616
5.150;-1.080375;0.881907
5.160;-1.081670;0.888027
5.170;-1.083737;0.894243
5.180;-1.085834;0.899720
5.190;-1.087447;0.903819
5.200;-1.088482;0.906355
5.210;-1.089221;0.907705
5.220;-1.090081;0.908715
5.230;-1.091332;0.910386
5.240;-1.092917;0.913469
5.250;-1.094472;0.918151
5.260;-1.095485;0.924015
5.270;-1.095490;0.930287
5.280;-1.094214;0.936197
5.290;-1.091628;0.941280
5.300;-1.087946;0.945462
5.310;-1.083567;0.948962
5.320;-1.078970;0.952115
5.330;-1.074587;0.955243
5.340;-1.070715;0.958629
5.350;-1.067486;0.962546
5.360;-1.064899;0.967274
5.370;-1.062868;0.973034
5.380;-1.061264;0.979890
5.390;-1.059958;0.987664
5.400;-1.058867;0.995932
5.410;-1.058013;1.004115
5.420;-1.057529;1.011619
5.430;-1.057636;1.017991
5.440;-1.058577;1.023014
5.450;-1.060561;1.026759
5.460;-1.063725;1.029533
5.470;-1.068095;1.031770
5.480;-1.073589;1.033871
5.490;-1.080048;1.036081
5.500;-1.087321;1.038403
5.510;-1.095371;1.040591
5.520;-1.104353;1.042202
5.530;-1.114603;1.042734
5.540;-1.126493;1.041803
5.550;-1.140226;1.039298
5.560;-1.155640;1.035440
5.570;-1.172172;1.030705
5.580;-1.188976;1.025681
5.590;-1.205144;1.020933
5.600;-1.219910;1.016928
5.610;-1.232765;1.014039
5.620;-1.243490;1.012576
5.630;-1.252148;1.012770
5.640;-1.259052;1.014677
5.650;-1.264711;1.018054
5.660;-1.269734;1.022313
5.670;-1.274715;1.026628
5.680;-1.280119;1.030198
5.690;-1.286200;1.032538
5.700;-1.292944;1.033668
5.710;-1.300063;1.034075
5.720;-1.307032;1.034486
5.730;-1.313191;1.035572
5.740;-1.317873;1.037736
5.750;-1.320552;1.041046
5.760;-1.320959;1.045272
5.770;-1.319165;1.049963
5.780;-1.315574;1.054574
5.790;-1.310826;1.058662
5.800;-1.305603;1.062079
5.810;-1.300422;1.065064
5.820;-1.295474;1.068114
5.830;-1.290587;1.071663
5.840;-1.285338;1.075773
5.850;-1.279235;1.080017
5.860;-1.271900;1.083663
5.870;-1.263176;1.086031
5.880;-1.253161;1.086812
5.890;-1.242126;1.086183
5.900;-1.230370;1.084701
5.910;-1.218064;1.083060
5.920;-1.205197;1.081862
5.930;-1.191634;1.081454
5.940;-1.177253;1.081867
5.950;-1.162064;1.082829
5.960;-1.146261;1.083855
5.970;-1.130205;1.084411
5.980;-1.114355;1.084074
5.990;-1.099190;1.082648
6.000;-1.085133;1.080171
6.010;-1.072526;1.076855
6.020;-1.061635;1.072987
6.030;-1.052658;1.068846
6.040;-1.045715;1.064669
6.050;-1.040808;1.060666
6.060;-1.037830;1.057056
6.070;-1.036623;1.054084
6.080;-1.037065;1.051979
6.090;-1.039112;1.050865
6.100;-1.042758;1.050649
6.110;-1.047943;1.050950
6.120;-1.054489;1.051106
6.130;-1.062108;1.050303
6.140;-1.070505;1.047802
6.150;-1.079525;1.043178
6.160;-1.089276;1.036493
6.170;-1.100133;1.028322
6.180;-1.112600;1.019596
6.190;-1.127042;1.011325
6.200;-1.143446;1.004293
6.210;-1.161305;0.998863
6.220;-1.179710;0.994954
6.230;-1.197602;0.992165
6.240;-1.214086;0.989987
6.250;-1.228717;0.988011
6.260;-1.241640;0.986069
6.270;-1.253536;0.984246
6.280;-1.265341;0.982782
6.290;-1.277882;0.981931
6.300;-1.291561;0.981865
6.310;-1.306226;0.982660
6.320;-1.321238;0.984292
6.330;-1.335676;0.986608
6.340;-1.348591;0.989315
6.350;-1.359246;0.992055
6.360;-1.367284;0.994580
6.370;-1.372782;0.996899
6.380;-1.376156;0.999264
6.390;-1.377955;1.001970
6.400;-1.378649;1.005131
6.410;-1.378484;1.008568
6.420;-1.377466;1.011899
6.430;-1.375434;1.014751
6.440;-1.372171;1.016984
6.450;-1.367459;1.018783
6.460;-1.361091;1.020574
6.470;-1.352864;1.022809
6.480;-1.342630;1.025749
6.490;-1.330405;1.029373
6.500;-1.316477;1.033428
6.510;-1.301415;1.037580
6.520;-1.285963;1.041564
6.530;-1.270875;1.045269
6.540;-1.256773;1.048743
6.550;-1.244098;1.052135
6.560;-1.233120;1.055612
6.570;-1.223977;1.059300
6.580;-1.216663;1.063248
6.590;-1.210963;1.067404
6.600;-1.206380;1.071594
6.610;-1.202125;1.075549
6.620;-1.197266;1.078980
6.630;-1.190995;1.081679
6.640;-1.182925;1.083586
6.650;-1.173285;1.084761
6.660;-1.162919;1.085298
6.670;-1.153060;1.085266
6.680;-1.144969;1.084708
6.690;-1.139564;1.083683
6.700;-1.137198;1.082294
6.710;-1.137624;1.080669
6.720;-1.140132;1.078890
6.730;-1.143784;1.076926
6.740;-1.147658;1.074602
6.750;-1.151057;1.071653
6.760;-1.153646;1.067826
6.770;-1.155505;1.063002
6.780;-1.157090;1.057294
6.790;-1.159099;1.051070
6.800;-1.162246;1.044861
6.810;-1.166980;1.039194
6.820;-1.173268;1.034404
6.830;-1.180554;1.030511
6.840;-1.187930;1.027229
6.850;-1.194461;1.024101
6.860;-1.199529;1.020731
6.870;-1.203043;1.016998
6.880;-1.205413;1.013159
6.890;-1.207306;1.009765
6.900;-1.209302;1.007416
6.910;-1.211625;1.006478
6.920;-1.214058;1.006909
6.930;-1.216058;1.008259
6.940;-1.216979;1.009828
6.950;-1.216266;1.010896
6.960;-1.213568;1.010937
6.970;-1.208788;1.009730
6.980;-1.202078;1.007363
6.990;-1.193827;1.004131
7.000;-1.184605;1.000410
7.010;-1.175073;0.996574
7.020;-1.165864;0.992999
7.030;-1.157471;0.990103
7.040;-1.150180;0.988331
7.050;-1.144073;0.988019
7.060;-1.139094;0.989203
7.070;-1.135145;0.991519
7.080;-1.132156;0.994279
7.090;-1.130093;0.996711
7.100;-1.128922;0.998221
7.110;-1.128542;0.998570
7.120;-1.128766;0.997902
7.130;-1.129318;0.996654
7.140;-1.129858;0.995388
7.150;-1.130000;0.994606
7.160;-1.129365;0.994594
7.170;-1.127695;0.995330
7.180;-1.124982;0.996503
7.190;-1.121559;0.997620
7.200;-1.118040;0.998181
7.210;-1.115134;0.997839
7.220;-1.113386;0.996489
7.230;-1.112984;0.994286
7.240;-1.113709;0.991563
7.250;-1.115056;0.988677
7.260;-1.116463;0.985846
7.270;-1.117552;0.983069
7.280;-1.118263;0.980179
7.290;-1.118845;0.977011
7.300;-1.119718;0.973566
7.310;-1.121262;0.970070
7.320;-1.123624;0.966881
7.330;-1.126621;0.964331
7.340;-1.129799;0.962573
7.350;-1.132615;0.961534
7.360;-1.134651;0.960963
7.370;-1.135763;0.960531
7.380;-1.136053;0.959916
7.390;-1.135733;0.958854
7.400;-1.134958;0.957165
7.410;-1.133734;0.954786
7.420;-1.131950;0.951806
7.430;-1.129469;0.948472
7.440;-1.126248;0.945151
7.450;-1.122411;0.942238
7.460;-1.118245;0.940064
7.470;-1.114121;0.938819
7.480;-1.110400;0.938528
7.490;-1.107378;0.939062
7.500;-1.105286;0.940172
7.510;-1.104299;0.941517
7.520;-1.104511;0.942682
7.530;-1.105905;0.943244
7.540;-1.108329;0.942875
7.550;-1.111524;0.941444
7.560;-1.115189;0.939089
7.570;-1.119040;0.936212
7.580;-1.122866;0.933379
7.590;-1.126575;0.931146
7.600;-1.130237;0.929867
7.610;-1.134116;0.929582
7.620;-1.138638;0.930035
7.630;-1.144282;0.930788
7.640;-1.151435;0.931390
7.650;-1.160285;0.931527
7.660;-1.170794;0.931114
7.670;-1.182737;0.930257
7.680;-1.195777;0.929132
7.690;-1.209532;0.927863
7.700;-1.223641;0.926492
7.710;-1.237806;0.925035
7.720;-1.251830;0.923559
7.730;-1.265665;0.922195
7.740;-1.279429;0.921094
7.750;-1.293353;0.920363
7.760;-1.307621;0.920050
7.770;-1.322181;0.920197
7.780;-1.336646;0.920924
7.790;-1.350377;0.922468
7.800;-1.362681;0.925101
7.810;-1.373021;0.928961
7.820;-1.381115;0.933884
7.830;-1.386903;0.939372
7.840;-1.390430;0.944688
7.850;-1.391741;0.949041
7.860;-1.390840;0.951750
7.870;-1.387754;0.952370
7.880;-1.382638;0.950777
7.890;-1.375852;0.947238
7.900;-1.367937;0.942389
7.910;-1.359489;0.937109
7.920;-1.350977;0.932296
7.930;-1.342606;0.928684
7.940;-1.334306;0.926749
7.950;-1.325830;0.926711
7.960;-1.316923;0.928535
7.970;-1.307470;0.931910
7.980;-1.297542;0.936229
