Time[s];COPx[cm];COPy[cm]
0.010;0.600807;-0.345478
0.020;0.707086;-0.372537
0.030;0.812440;-0.398694
0.040;0.916152;-0.423620
0.050;1.017484;-0.447631
0.060;1.115569;-0.471459
0.070;1.209417;-0.495790
0.080;1.298065;-0.520783
0.090;1.380767;-0.545778
0.100;1.457113;-0.569282
0.110;1.527002;-0.589242
0.120;1.590485;-0.603504
0.130;1.647568;-0.610327
0.140;1.698053;-0.608780
0.150;1.741445;-0.598945
0.160;1.776951;-0.581860
0.170;1.803560;-0.559249
0.180;1.820238;-0.533090
0.190;1.826212;-0.505137
0.200;1.821286;-0.476569
0.210;1.806088;-0.447912
0.220;1.782137;-0.419250
0.230;1.751690;-0.390576
0.240;1.717402;-0.362088
0.250;1.681924;-0.334272
0.260;1.647578;-0.307793
0.270;1.616182;-0.283317
0.280;1.589035;-0.261409
0.290;1.566968;-0.242550
0.300;1.550413;-0.227189
0.310;1.539453;-0.215748
0.320;1.533896;-0.208538
0.330;1.533397;-0.205630
0.340;1.537595;-0.206708
0.350;1.546254;-0.210986
0.360;1.559323;-0.217212
0.370;1.576928;-0.223804
0.380;1.599263;-0.229144
0.390;1.626443;-0.231966
0.400;1.658358;-0.231739
0.410;1.694599;-0.228896
0.420;1.734452;-0.224776
0.430;1.776936;-0.221268
0.440;1.820834;-0.220254
0.450;1.864740;-0.223026
0.460;1.907139;-0.229875
0.470;1.946541;-0.239971
0.480;1.981643;-0.251568
0.490;2.011479;-0.262429
0.500;2.035535;-0.270332
0.510;2.053832;-0.273505
0.520;2.066964;-0.270938
0.530;2.076079;-0.262531
0.540;2.082771;-0.249085
0.550;2.088880;-0.232166
0.560;2.096221;-0.213859
0.570;2.106274;-0.196448
0.580;2.119950;-0.182059
0.590;2.137487;-0.172335
0.600;2.158562;-0.168199
0.610;2.182549;-0.169757
0.620;2.208829;-0.176355
0.630;2.237047;-0.186740
0.640;2.267248;-0.199300
0.650;2.299880;-0.212354
0.660;2.335689;-0.224478
0.670;2.375503;-0.234827
0.680;2.419932;-0.243342
0.690;2.469044;-0.250719
0.700;2.522135;-0.258102
0.710;2.577728;-0.266635
0.720;2.633853;-0.277096
0.730;2.688489;-0.289794
0.740;2.739987;-0.304695
0.750;2.787292;-0.321610
0.760;2.829900;-0.340216
0.770;2.867605;-0.359893
0.780;2.900166;-0.379505
0.790;2.927050;-0.397351
0.800;2.947356;-0.411395
0.810;2.959975;-0.419746
0.820;2.963901;-0.421169
0.830;2.958560;-0.415399
0.840;2.944019;-0.403118
0.850;2.920971;-0.385612
0.860;2.890537;-0.364278
0.870;2.853951;-0.340158
0.880;2.812252;-0.313675
0.890;2.766101;-0.284618
0.900;2.715785;-0.252389
0.910;2.661391;-0.216425
0.920;2.603075;-0.176645
0.930;2.541278;-0.133804
0.940;2.476832;-0.089563
0.950;2.410958;-0.046259
0.960;2.345213;-0.006413
0.970;2.281376;0.027814
0.980;2.221282;0.055033
0.990;2.166583;0.074755
1.000;2.118498;0.087254
1.010;2.077653;0.093264
1.020;2.044062;0.093685
1.030;2.017293;0.089396
1.040;1.996728;0.081244
1.050;1.981849;0.070170
1.060;1.972449;0.057416
1.070;1.968720;0.044690
1.080;1.971197;0.034147
1.090;1.980537;0.028132
1.100;1.997190;0.028726
1.110;2.021037;0.037256
1.120;2.051128;0.053934
1.130;2.085634;0.077761
1.140;2.122078;0.106699
1.150;2.157755;0.138044
1.160;2.190229;0.168897
1.170;2.217756;0.196644
1.180;2.239509;0.219338
1.190;2.255574;0.235937
1.200;2.266746;0.246371
1.210;2.274238;0.251433
1.220;2.279400;0.252500
1.230;2.283535;0.251149
1.240;2.287788;0.248722
1.250;2.293053;0.246028
1.260;2.299883;0.243269
1.270;2.308403;0.240229
1.280;2.318301;0.236573
1.290;2.328916;0.232105
1.300;2.339428;0.226845
1.310;2.349070;0.220942
1.320;2.357280;0.214547
1.330;2.363734;0.207753
1.340;2.368273;0.200645
1.350;2.370794;0.193369
1.360;2.371178;0.186142
1.370;2.369287;0.179197
1.380;2.364981;0.172729
1.390;2.358140;0.166894
1.400;2.348680;0.161868
1.410;2.336548;0.157911
1.420;2.321733;0.155365
1.430;2.304265;0.154582
1.440;2.284200;0.155841
1.450;2.261594;0.159308
1.460;2.236467;0.165124
1.470;2.208773;0.173551
1.480;2.178376;0.185083
1.490;2.144993;0.200347
1.500;2.108115;0.219778
1.510;2.066946;0.243148
1.520;2.020440;0.269200
1.530;1.967487;0.295602
1.540;1.907241;0.319368
1.550;1.839509;0.337654
1.560;1.765051;0.348643
1.570;1.685705;0.352177
1.580;1.604272;0.349828
1.590;1.524172;0.344396
1.600;1.448944;0.339013
1.610;1.381661;0.336202
1.620;1.324423;0.337178
1.630;1.278077;0.341613
1.640;1.242254;0.347920
1.650;1.215654;0.353925
1.660;1.196474;0.357659
1.670;1.182811;0.357899
1.680;1.172971;0.354311
1.690;1.165639;0.347224
1.700;1.159917;0.337280
1.710;1.155273;0.325147
1.720;1.151458;0.311364
1.730;1.148414;0.296280
1.740;1.146206;0.280024
1.750;1.144947;0.262472
1.760;1.144709;0.243264
1.770;1.145442;0.221892
1.780;1.146921;0.197906
1.790;1.148752;0.171199
1.800;1.150431;0.142291
1.810;1.151463;0.112446
1.820;1.151523;0.083513
1.830;1.150619;0.057491
1.840;1.149180;0.035965
1.850;1.148033;0.019659
1.860;1.148209;0.008267
1.870;1.150663;0.000595
1.880;1.155978;-0.005100
1.890;1.164194;-0.010693
1.900;1.174844;-0.017828
1.910;1.187203;-0.027650
1.920;1.200621;-0.040631
1.930;1.214796;-0.056514
1.940;1.229855;-0.074387
1.950;1.246260;-0.092891
1.960;1.264621;-0.110491
1.970;1.285511;-0.125677
1.980;1.309338;-0.137094
1.990;1.336264;-0.143610
2.000;1.366161;-0.144441
2.010;1.398585;-0.139342
2.020;1.432805;-0.128795
2.030;1.467911;-0.114088
2.040;1.503007;-0.097191
2.050;1.537392;-0.080436
2.060;1.570639;-0.066084
2.070;1.602513;-0.055913
2.080;1.632789;-0.050918
2.090;1.661090;-0.051218
2.100;1.686854;-0.056146
2.110;1.709428;-0.064474
2.120;1.728242;-0.074685
2.130;1.742954;-0.085258
2.140;1.753537;-0.094950
2.150;1.760259;-0.103012
2.160;1.763590;-0.109261
2.170;1.764092;-0.113981
2.180;1.762352;-0.117689
2.190;1.758996;-0.120887
2.200;1.754729;-0.123889
2.210;1.750356;-0.126773
2.220;1.746696;-0.129423
2.230;1.744426;-0.131613
2.240;1.743910;-0.133095
2.250;1.745097;-0.133667
2.260;1.747542;-0.133208
2.270;1.750557;-0.131659
2.280;1.753435;-0.128943
2.290;1.755681;-0.124827
2.300;1.757147;-0.118796
2.310;1.758031;-0.110016
2.320;1.758743;-0.097425
2.330;1.759712;-0.079944
2.340;1.761217;-0.056750
2.350;1.763304;-0.027505
2.360;1.765823;0.007530
2.370;1.768575;0.047566
2.380;1.771471;0.091512
2.390;1.774632;0.138249
2.400;1.778373;0.186807
2.410;1.783118;0.236379
2.420;1.789290;0.286220
2.430;1.797248;0.335568
2.440;1.807266;0.383647
2.450;1.819556;0.429757
2.460;1.834311;0.473358
2.470;1.851703;0.514087
2.480;1.871834;0.551701
2.490;1.894662;0.585974
2.500;1.919934;0.616635
2.510;1.947189;0.643369
2.520;1.975819;0.665906
2.530;2.005181;0.684117
2.540;2.034700;0.698086
2.550;2.063932;0.708097
2.560;2.092547;0.714578
2.570;2.120262;0.718006
2.580;2.146797;0.718828
2.590;2.171918;0.717412
2.600;2.195549;0.714039
2.610;2.217882;0.708972
2.620;2.239425;0.702569
2.630;2.260932;0.695385
2.640;2.283248;0.688162
2.650;2.307112;0.681648
2.660;2.332975;0.676308
2.670;2.360902;0.672041
2.680;2.390585;0.668054
2.690;2.421493;0.662947
2.700;2.453079;0.655015
2.710;2.484950;0.642661
2.720;2.516923;0.624811
2.730;2.548974;0.601178
2.740;2.581110;0.572298
2.750;2.613243;0.539347
2.760;2.645112;0.503828
2.770;2.676278;0.467280
2.780;2.706178;0.431097
2.790;2.734175;0.396490
2.800;2.759554;0.364546
2.810;2.781491;0.336298
2.820;2.799030;0.312713
2.830;2.811171;0.294612
2.840;2.817031;0.282539
2.850;2.816058;0.276639
2.860;2.808161;0.276598
2.870;2.793731;0.281674
2.880;2.773522;0.290843
2.890;2.748441;0.303059
2.900;2.719332;0.317534
2.910;2.686791;0.333956
2.920;2.651086;0.352514
2.930;2.612154;0.373777
2.940;2.569699;0.398456
2.950;2.523371;0.427157
2.960;2.473006;0.460154
2.970;2.418899;0.497184
2.980;2.361984;0.537307
2.990;2.303841;0.578921
3.000;2.246483;0.619977
3.010;2.191991;0.658399
3.020;2.142166;0.692571
3.030;2.098301;0.721708
3.040;2.061145;0.745979
3.050;2.030999;0.766369
3.060;2.007874;0.784349
3.070;1.991644;0.801501
3.080;1.982119;0.819158
3.090;1.979018;0.838150
3.100;1.981856;0.858691
3.110;1.989812;0.880457
3.120;2.001678;0.902788
3.130;2.015963;0.924959
3.140;2.031140;0.946384
3.150;2.045924;0.966712
3.160;2.059456;0.985814
3.170;2.071286;1.003722
3.180;2.081188;1.020574
3.190;2.088900;1.036615
3.200;2.093927;1.052257
3.210;2.095484;1.068095
3.220;2.092609;1.084803
3.230;2.084414;1.102914
3.240;2.070370;1.122596
3.250;2.050511;1.143557
3.260;2.025498;1.165144
3.270;1.996523;1.186566
3.280;1.965104;1.207133
3.290;1.932824;1.226415
3.300;1.901106;1.244252
3.310;1.871062;1.260688
3.320;1.843447;1.275867
3.330;1.818673;1.289986
3.340;1.796889;1.303295
3.350;1.778091;1.316113
3.360;1.762250;1.328818
3.370;1.749410;1.341790
3.380;1.739730;1.355348
3.390;1.733450;1.369698
3.400;1.730803;1.384921
3.410;1.731895;1.400984
3.420;1.736586;1.417770
3.430;1.744428;1.435116
3.440;1.754692;1.452840
3.450;1.766484;1.470738
3.460;1.778892;1.488540
3.470;1.791105;1.505845
3.480;1.802445;1.522063
3.490;1.812360;1.536441
3.500;1.820428;1.548175
3.510;1.826384;1.556604
3.520;1.830167;1.561412
3.530;1.831931;1.562738
3.540;1.831999;1.561157
3.550;1.830765;1.557540
3.560;1.828580;1.552849
3.570;1.825680;1.547943
3.580;1.822177;1.543405
3.590;1.818090;1.539425
3.600;1.813419;1.535751
3.610;1.808237;1.531758
3.620;1.802802;1.526671
3.630;1.797626;1.519896
3.640;1.793431;1.511327
3.650;1.790996;1.501461
3.660;1.790915;1.491227
3.670;1.793399;1.481620
3.680;1.798183;1.473300
3.690;1.804615;1.466355
3.700;1.811892;1.460289
3.710;1.819365;1.454181
3.720;1.826750;1.446913
3.730;1.834159;1.437376
3.740;1.841919;1.424616
3.750;1.850297;1.407926
3.760;1.859244;1.386870
3.770;1.868303;1.361268
3.780;1.876702;1.331152
3.790;1.883585;1.296710
3.800;1.888274;1.258253
3.810;1.890457;1.216176
3.820;1.890245;1.170945
3.830;1.888065;1.123089
3.840;1.884436;1.073202
3.850;1.879713;1.021938
3.860;1.873909;0.969974
3.870;1.866670;0.917950
3.880;1.857404;0.866400
3.890;1.845494;0.815717
3.900;1.830530;0.766171
3.910;1.812480;0.717983
3.920;1.791788;0.671391
3.930;1.769375;0.626670
3.940;1.746516;0.584090
3.950;1.724613;0.543845
3.960;1.704923;0.506028
3.970;1.688343;0.470679
3.980;1.675328;0.437898
3.990;1.665951;0.407956
4.000;1.660042;0.381299
4.010;1.657324;0.358407
4.020;1.657470;0.339589
4.030;1.660095;0.324808
4.040;1.664716;0.313652
4.050;1.670757;0.305393
4.060;1.677610;0.299082
4.070;1.684742;0.293619
4.080;1.691787;0.287817
4.090;1.698587;0.280490
4.100;1.705184;0.270595
4.110;1.711752;0.257401
4.120;1.718513;0.240634
4.130;1.725625;0.220510
4.140;1.733062;0.197637
4.150;1.740521;0.172817
4.160;1.747418;0.146845
4.170;1.752979;0.120402
4.180;1.756421;0.094100
4.190;1.757124;0.068643
4.200;1.754742;0.044965
4.210;1.749218;0.024264
4.220;1.740741;0.007878
4.230;1.729691;-0.002939
4.240;1.716620;-0.007262
4.250;1.702263;-0.004653
4.260;1.687525;0.004810
4.270;1.673398;0.020666
4.280;1.660812;0.042293
4.290;1.650471;0.069112
4.300;1.642721;0.100643
4.310;1.637482;0.136371
4.320;1.634256;0.175478
4.330;1.632251;0.216604
4.340;1.630583;0.257815
4.350;1.628496;0.296842
4.360;1.625521;0.331520
4.370;1.621543;0.360229
4.380;1.616780;0.382118
4.390;1.611718;0.397001
4.400;1.606982;0.404963
4.410;1.603158;0.405902
4.420;1.600561;0.399308
4.430;1.599075;0.384389
4.440;1.598118;0.360494
4.450;1.596796;0.327574
4.460;1.594162;0.286464
4.470;1.589494;0.238879
4.480;1.582463;0.187134
4.490;1.573146;0.133683
4.500;1.561908;0.080643
4.510;1.549212;0.029463
4.520;1.535465;-0.019156
4.530;1.520923;-0.065127
4.540;1.505698;-0.108721
4.550;1.489832;-0.150321
4.560;1.473426;-0.190221
4.570;1.456768;-0.228491
4.580;1.440422;-0.264929
4.590;1.425225;-0.299118
4.600;1.412198;-0.330555
4.610;1.402348;-0.358808
4.620;1.396407;-0.383641
4.630;1.394599;-0.405062
4.640;1.396517;-0.423273
4.650;1.401190;-0.438542
4.660;1.407300;-0.451074
4.670;1.413493;-0.460931
4.680;1.418686;-0.468067
4.690;1.422315;-0.472430
4.700;1.424451;-0.474088
4.710;1.425763;-0.473323
4.720;1.427315;-0.470683
4.730;1.430233;-0.466973
4.740;1.435356;-0.463162
4.750;1.442990;-0.460173
4.760;1.452862;-0.458628
4.770;1.464270;-0.458662
4.780;1.476357;-0.459927
4.790;1.488402;-0.461752
4.800;1.500018;-0.463368
4.810;1.511161;-0.464034
4.820;1.521999;-0.463018
4.830;1.532729;-0.459466
4.840;1.543481;-0.452286
4.850;1.554341;-0.440172
4.860;1.565467;-0.421814
4.870;1.577178;-0.396261
4.880;1.589955;-0.363312
4.890;1.604325;-0.323748
4.900;1.620692;-0.279279
4.910;1.639183;-0.232206
4.920;1.659582;-0.184921
4.930;1.681392;-0.139440
4.940;1.703992;-0.097105
4.950;1.726829;-0.058485
4.960;1.749553;-0.023433
4.970;1.772068;0.008773
4.980;1.794478;0.039240
4.990;1.816987;0.069237
5.000;1.839783;0.099954
5.010;1.862956;0.132317
5.020;1.886461;0.166929
5.030;1.910131;0.204140
5.040;1.933734;0.244126
5.050;1.957015;0.286873
5.060;1.979722;0.332034
5.070;2.001574;0.378743
5.080;2.022197;0.425565
5.090;2.041065;0.470671
5.100;2.057521;0.512255
5.110;2.070879;0.549050
5.120;2.080581;0.580754
5.130;2.086327;0.608188
5.140;2.088113;0.633105
5.150;2.086180;0.657712
5.160;2.080913;0.684043
5.170;2.072746;0.713421
5.180;2.062068;0.746130
5.190;2.049142;0.781394
5.200;2.034035;0.817634
5.210;2.016606;0.852909
5.220;1.996577;0.885405
5.230;1.973689;0.913860
5.240;1.947882;0.937845
5.250;1.919438;0.957845
5.260;1.889020;0.975160
5.270;1.857586;0.991625
5.280;1.826197;1.009205
5.290;1.795800;1.029579
5.300;1.767069;1.053789
5.310;1.740346;1.082022
5.320;1.715700;1.113542
5.330;1.693077;1.146766
5.340;1.672485;1.179465
5.350;1.654159;1.209123
5.360;1.638640;1.233381
5.370;1.626724;1.250511
5.380;1.619303;1.259749
5.390;1.617128;1.261372
5.400;1.620605;1.256475
5.410;1.629687;1.246558
5.420;1.643918;1.233077
5.430;1.662590;1.217142
5.440;1.684942;1.199408
5.450;1.710291;1.180166
5.460;1.738056;1.159545
5.470;1.767665;1.137739
5.480;1.798393;1.115146
5.490;1.829263;1.092369
5.500;1.859032;1.070095
5.510;1.886310;1.048978
5.520;1.909717;1.029591
5.530;1.928037;1.012473
5.540;1.940338;0.998193
5.550;1.946056;0.987353
5.560;1.945065;0.980498
5.570;1.937689;0.977974
5.580;1.924662;0.979785
5.590;1.907011;0.985502
5.600;1.885912;0.994310
5.610;1.862510;1.005221
5.620;1.837733;1.017419
5.630;1.812144;1.030632
5.640;1.785890;1.045338
5.650;1.758766;1.062696
5.660;1.730378;1.084199
5.670;1.700331;1.111151
5.680;1.668379;1.144127
5.690;1.634531;1.182615
5.700;1.599135;1.224981
5.710;1.562896;1.268815
5.720;1.526810;1.311570
5.730;1.491941;1.351231
5.740;1.459107;1.386755
5.750;1.428585;1.418090
5.760;1.400021;1.445823
5.770;1.372589;1.470661
5.780;1.345345;1.492998
5.790;1.317598;1.512753
5.800;1.289153;1.529492
5.810;1.260352;1.542714
5.820;1.231933;1.552105
5.830;1.204806;1.557657
5.840;1.179829;1.559582
5.850;1.157672;1.558146
5.860;1.138756;1.553515
5.870;1.123243;1.545759
5.880;1.111018;1.534988
5.890;1.101697;1.521543
5.900;1.094679;1.506084
5.910;1.089254;1.489483
5.920;1.084763;1.472524
5.930;1.080730;1.455557
5.940;1.076910;1.438294
5.950;1.073248;1.419868
5.960;1.069742;1.399163
5.970;1.066303;1.375267
5.980;1.062644;1.347865
5.990;1.058260;1.317435
6.000;1.052519;1.285189
6.010;1.044821;1.252812
6.020;1.034780;1.222065
6.030;1.022318;1.194389
6.040;1.007646;1.170605
6.050;0.991105;1.150793
6.060;0.972946;1.134362
6.070;0.953141;1.120286
6.080;0.931331;1.107406
6.090;0.906982;1.094735
6.100;0.879720;1.081698
6.110;0.849717;1.068290
6.120;0.817904;1.055114
6.130;0.785868;1.043258
6.140;0.755395;1.034017
6.150;0.727845;1.028535
6.160;0.703625;1.027509
6.170;0.682046;1.031075
6.180;0.661614;1.038870
6.190;0.640660;1.050180
6.200;0.618041;1.064071
6.210;0.593640;1.079469
6.220;0.568509;1.095240
6.230;0.544628;1.110333
6.240;0.524374;1.123952
6.250;0.509923;1.135644
6.260;0.502773;1.145205
6.270;0.503580;1.152402
6.280;0.512340;1.156634
6.290;0.528800;1.156727
6.300;0.552899;1.151001
6.310;0.584999;1.137628
6.320;0.625772;1.115157
6.330;0.675774;1.082985
6.340;0.734926;1.041579
6.350;0.802173;0.992369
6.360;0.875502;0.937376
6.370;0.952320;0.878775
6.380;1.029998;0.818594
6.390;1.106381;0.758618
6.400;1.180092;0.700423
6.410;1.250542;0.645414
6.420;1.317683;0.594759
6.430;1.381602;0.549214
6.440;1.442136;0.508954
6.450;1.498639;0.473499
6.460;1.549973;0.441826
6.470;1.594650;0.412691
6.480;1.631068;0.385060
6.490;1.657764;0.358498
6.500;1.673672;0.333330
6.510;1.678353;0.310506
6.520;1.672134;0.291217
6.530;1.656116;0.276450
6.540;1.632007;0.266658
6.550;1.601823;0.261645
6.560;1.567541;0.260689
6.570;1.530784;0.262794
6.580;1.492638;0.266967
6.590;1.453615;0.272394
6.600;1.413762;0.278487
6.610;1.372860;0.284843
6.620;1.330653;0.291160
6.630;1.287061;0.297162
6.640;1.242310;0.302570
6.650;1.196949;0.307102
6.660;1.151731;0.310519
6.670;1.107365;0.312660
6.680;1.064211;0.313471
6.690;1.022048;0.312952
6.700;0.980038;0.311054
6.710;0.936927;0.307552
6.720;0.891452;0.302005
6.730;0.842819;0.293871
6.740;0.791123;0.282755
6.750;0.737537;0.268686
6.760;0.684199;0.252266
6.770;0.633798;0.234552
6.780;0.588975;0.216693
6.790;0.551739;0.199433
6.800;0.523126;0.182728
6.810;0.503244;0.165644
6.820;0.491639;0.146627
6.830;0.487767;0.124010
6.840;0.491295;0.096565
6.850;0.502109;0.063878
6.860;0.520063;0.026448
6.870;0.544678;-0.014477
6.880;0.574980;-0.057246
6.890;0.609590;-0.100188
6.900;0.647033;-0.141927
6.910;0.686113;-0.181555
6.920;0.726200;-0.218685
6.930;0.767315;-0.253403
6.940;0.810011;-0.286166
6.950;0.855097;-0.317647
6.960;0.903270;-0.348557
6.970;0.954753;-0.379479
6.980;1.009032;-0.410728
6.990;1.064834;-0.442235
7.000;1.120368;-0.473488
7.010;1.173773;-0.503564
7.020;1.223559;-0.531324
7.030;1.268868;-0.555715
7.040;1.309481;-0.576080
7.050;1.345646;-0.592318
7.060;1.377845;-0.604822
7.070;1.406572;-0.614223
7.080;1.432165;-0.621057
7.090;1.454678;-0.625544
7.100;1.473842;-0.627606
7.110;1.489136;-0.627089
7.120;1.499990;-0.624060
7.130;1.506056;-0.618994
7.140;1.507438;-0.612761
7.150;1.504813;-0.606437
7.160;1.499338;-0.601041
7.170;1.492403;-0.597300
7.180;1.485290;-0.595521
7.190;1.478899;-0.595608
7.200;1.473649;-0.597194
7.210;1.469596;-0.599820
7.220;1.466680;-0.603121
7.230;1.464968;-0.606940
7.240;1.464788;-0.611392
7.250;1.466709;-0.616829
7.260;1.471421;-0.623736
7.270;1.479571;-0.632566
7.280;1.491623;-0.643587
7.290;1.507757;-0.656786
7.300;1.527830;-0.671866
7.310;1.551363;-0.688301
7.320;1.577576;-0.705446
7.330;1.605483;-0.722646
7.340;1.634057;-0.739350
7.350;1.662441;-0.755131
7.360;1.690098;-0.769600
7.370;1.716832;-0.782220
7.380;1.742675;-0.792177
7.390;1.767722;-0.798417
7.400;1.792016;-0.799870
7.410;1.815524;-0.795752
7.420;1.838196;-0.785815
7.430;1.860060;-0.770413
7.440;1.881290;-0.750380
7.450;1.902205;-0.726746
7.460;1.923190;-0.700433
7.470;1.944591;-0.672059
7.480;1.966645;-0.641930
7.490;1.989488;-0.610198
7.500;2.013246;-0.577102
7.510;2.038129;-0.543149
7.520;2.064455;-0.509188
7.530;2.092583;-0.476324
7.540;2.122761;-0.445696
7.550;2.154988;-0.418221
7.560;2.188963;-0.394402
7.570;2.224124;-0.374277
7.580;2.259747;-0.357532
7.590;2.295039;-0.343686
7.600;2.329210;-0.332278
7.610;2.361515;-0.322977
7.620;2.391307;-0.315617
7.630;2.418071;-0.310178
7.640;2.441430;-0.306717
7.650;2.461115;-0.305249
7.660;2.476947;-0.305574
7.670;2.488853;-0.307120
7.680;2.496943;-0.308861
7.690;2.501588;-0.309370
7.700;2.503444;-0.307011
7.710;2.503369;-0.300248
7.720;2.502210;-0.288004
7.730;2.500550;-0.269964
7.740;2.498503;-0.246745
7.750;2.495711;-0.219888
7.760;2.491528;-0.191639
7.770;2.485325;-0.164579
7.780;2.476784;-0.141171
7.790;2.466049;-0.123372
7.800;2.453719;-0.112375
7.810;2.440697;-0.108521
7.820;2.427987;-0.111345
7.830;2.416506;-0.119708
7.840;2.406953;-0.132045
7.850;2.399726;-0.146687
7.860;2.394902;-0.162195
7.870;2.392251;-0.177588
7.880;2.391306;-0.192401
7.890;2.391450;-0.206623
7.900;2.392016;-0.220590
7.910;2.392387;-0.234886
7.920;2.392063;-0.250245
7.930;2.390710;-0.267407
7.940;2.388170;-0.286939
7.950;2.384415;-0.309090
7.960;2.379466;-0.333755
7.970;2.373299;-0.360560
7.980;2.365789;-0.389035
7.990;2.356761;-0.418770
8.000;2.346141;-0.449529
8.010;2.334130;-0.481301
8.020;2.321329;-0.514276
8.030;2.308728;-0.548751
8.040;2.297564;-0.584967
8.050;2.289076;-0.622929
8.060;2.284243;-0.662307
8.070;2.283572;-0.702448
8.080;2.287025;-0.742547
8.090;2.294107;-0.781914
8.100;2.304077;-0.820255
8.110;2.316189;-0.857825
8.120;2.329885;-0.895393
8.130;2.344896;-0.934032
8.140;2.361234;-0.974816
8.150;2.379106;-1.018545
8.160;2.398757;-1.065509
8.170;2.420287;-1.115300
8.180;2.443530;-1.166651
