Time[s];COPx[cm];COPy[cm]
0.010;2.834117;-1.068365
0.020;2.816618;-1.054073
0.030;2.795999;-1.039159
0.040;2.769968;-1.023334
0.050;2.737707;-1.006922
0.060;2.700017;-0.990727
0.070;2.659067;-0.975734
0.080;2.617854;-0.962804
0.090;2.579573;-0.952473
0.100;2.547033;-0.944837
0.110;2.522225;-0.939531
0.120;2.506115;-0.935837
0.130;2.498671;-0.932956
0.140;2.499068;-0.930338
0.150;2.505965;-0.927900
0.160;2.517746;-0.926022
0.170;2.532657;-0.925336
0.180;2.548848;-0.926447
0.190;2.564385;-0.929684
0.200;2.577309;-0.934987
0.210;2.585754;-0.941908
0.220;2.588086;-0.949763
0.230;2.582976;-0.957886
0.240;2.569398;-0.965899
0.250;2.546611;-0.973829
0.260;2.514227;-0.981976
0.270;2.472410;-0.990558
0.280;2.422127;-0.999369
0.290;2.365278;-1.007718
0.300;2.304525;-1.014730
0.310;2.242783;-1.019841
0.320;2.182492;-1.023215
0.330;2.124974;-1.025877
0.340;2.070162;-1.029454
0.350;2.016851;-1.035622
0.360;1.963391;-1.045420
0.370;1.908547;-1.058753
0.380;1.852243;-1.074292
0.390;1.795959;-1.089843
0.400;1.742654;-1.103040
0.410;1.696187;-1.112069
0.420;1.660378;-1.116152
0.430;1.637957;-1.115630
0.440;1.629797;-1.111636
0.450;1.634725;-1.105542
0.460;1.649963;-1.098466
0.470;1.671943;-1.091053
0.480;1.697128;-1.083552
0.490;1.722591;-1.076052
0.500;1.746260;-1.068674
0.510;1.766921;-1.061626
0.520;1.784076;-1.055130
0.530;1.797727;-1.049325
0.540;1.808095;-1.044211
0.550;1.815319;-1.039649
0.560;1.819221;-1.035364
0.570;1.819277;-1.030939
0.580;1.814824;-1.025842
0.590;1.805432;-1.019521
0.600;1.791228;-1.011558
0.610;1.772981;-1.001789
0.620;1.751912;-0.990294
0.630;1.729370;-0.977268
0.640;1.706560;-0.962895
0.650;1.684470;-0.947314
0.660;1.663984;-0.930669
0.670;1.646073;-0.913164
0.680;1.631894;-0.895069
0.690;1.622731;-0.876667
0.700;1.619748;-0.858188
0.710;1.623666;-0.839776
0.720;1.634464;-0.821491
0.730;1.651230;-0.803362
0.740;1.672214;-0.785455
0.750;1.695101;-0.767935
0.760;1.717409;-0.751075
0.770;1.736904;-0.735175
0.780;1.751919;-0.720437
0.790;1.761524;-0.706849
0.800;1.765524;-0.694171
0.810;1.764286;-0.682031
0.820;1.758457;-0.670100
0.830;1.748697;-0.658283
0.840;1.735548;-0.646783
0.850;1.719481;-0.635987
0.860;1.701034;-0.626255
0.870;1.680916;-0.617743
0.880;1.659996;-0.610392
0.890;1.639131;-0.604030
0.900;1.618917;-0.598517
0.910;1.599460;-0.593828
0.920;1.580336;-0.590033
0.930;1.560763;-0.587189
0.940;1.539970;-0.585198
0.950;1.517552;-0.583732
0.960;1.493667;-0.582277
0.970;1.468960;-0.580244
0.980;1.444281;-0.577077
0.990;1.420332;-0.572285
1.000;1.397433;-0.565461
1.010;1.375501;-0.556341
1.020;1.354262;-0.544935
1.030;1.333551;-0.531627
1.040;1.313544;-0.517153
1.050;1.294817;-0.502427
1.060;1.278222;-0.488298
1.070;1.264628;-0.475346
1.080;1.254606;-0.463821
1.090;1.248158;-0.453710
1.100;1.244634;-0.444894
1.110;1.242891;-0.437293
1.120;1.241681;-0.430903
1.130;1.240092;-0.425728
1.140;1.237867;-0.421647
1.150;1.235420;-0.418362
1.160;1.233569;-0.415490
1.170;1.233131;-0.412741
1.180;1.234600;-0.410045
1.190;1.238066;-0.407535
1.200;1.243354;-0.405387
1.210;1.250235;-0.403606
1.220;1.258549;-0.401924
1.230;1.268211;-0.399864
1.240;1.279108;-0.396945
1.250;1.290986;-0.392883
1.260;1.303396;-0.387686
1.270;1.315696;-0.381628
1.280;1.327142;-0.375184
1.290;1.337016;-0.368997
1.300;1.344747;-0.363850
1.310;1.349938;-0.360590
1.320;1.352281;-0.359962
1.330;1.351399;-0.362380
1.340;1.346731;-0.367745
1.350;1.337540;-0.375389
1.360;1.323069;-0.384181
1.370;1.302780;-0.392812
1.380;1.276611;-0.400166
1.390;1.245150;-0.405639
1.400;1.209652;-0.409245
1.410;1.171879;-0.411424
1.420;1.133809;-0.412666
1.430;1.097345;-0.413170
1.440;1.064137;-0.412749
1.450;1.035551;-0.410994
1.460;1.012703;-0.407559
1.470;0.996465;-0.402395
1.480;0.987410;-0.395830
1.490;0.985719;-0.388500
1.500;0.991132;-0.381174
1.510;1.003000;-0.374536
1.520;1.020457;-0.368965
1.530;1.042647;-0.364398
1.540;1.068886;-0.360328
1.550;1.098659;-0.355967
1.560;1.131437;-0.350541
1.570;1.166423;-0.343586
1.580;1.202351;-0.335136
1.590;1.237453;-0.325761
1.600;1.269581;-0.316463
1.610;1.296447;-0.308481
1.620;1.315889;-0.303050
1.630;1.326124;-0.301103
1.640;1.325980;-0.303007
1.650;1.315084;-0.308384
1.660;1.294014;-0.316134
1.670;1.264313;-0.324648
1.680;1.228323;-0.332170
1.690;1.188828;-0.337171
1.700;1.148577;-0.338615
1.710;1.109835;-0.336055
1.720;1.074123;-0.329592
1.730;1.042219;-0.319775
1.740;1.014398;-0.307520
1.750;0.990745;-0.294037
1.760;0.971418;-0.280708
1.770;0.956763;-0.268869
1.780;0.947294;-0.259514
1.790;0.943537;-0.253060
1.800;0.945796;-0.249305
1.810;0.953888;-0.247626
1.820;0.966962;-0.247300
1.830;0.983513;-0.247765
1.840;1.001628;-0.248705
1.850;1.019364;-0.249980
1.860;1.035072;-0.251486
1.870;1.047549;-0.253035
1.880;1.056005;-0.254344
1.890;1.059923;-0.255151
1.900;1.058933;-0.255444
1.910;1.052763;-0.255663
1.920;1.041271;-0.256728
1.930;1.024518;-0.259785
1.940;1.002831;-0.265754
1.950;0.976821;-0.274879
1.960;0.947347;-0.286527
1.970;0.915436;-0.299379
1.980;0.882163;-0.311939
1.990;0.848525;-0.323092
2.000;0.815338;-0.332419
2.010;0.783159;-0.340125
2.020;0.752278;-0.346673
2.030;0.722789;-0.352384
2.040;0.694711;-0.357219
2.050;0.668112;-0.360817
2.060;0.643167;-0.362729
2.070;0.620143;-0.362689
2.080;0.599300;-0.360783
2.090;0.580758;-0.357423
2.100;0.564360;-0.353156
2.110;0.549619;-0.348411
2.120;0.535781;-0.343309
2.130;0.522005;-0.337646
2.140;0.507586;-0.331026
2.150;0.492118;-0.323075
2.160;0.475541;-0.313666
2.170;0.458074;-0.303082
2.180;0.440099;-0.292036
2.190;0.422040;-0.281548
2.200;0.404284;-0.272676
2.210;0.387133;-0.266186
2.220;0.370802;-0.262262
2.230;0.355459;-0.260378
2.240;0.341306;-0.259404
2.250;0.328691;-0.257920
2.260;0.318203;-0.254607
2.270;0.310683;-0.248573
2.280;0.307105;-0.239525
2.290;0.308346;-0.227773
2.300;0.314941;-0.214099
2.310;0.326918;-0.199546
2.320;0.343750;-0.185184
2.330;0.364433;-0.171896
2.340;0.387599;-0.160275
2.350;0.411628;-0.150625
2.360;0.434766;-0.143016
2.370;0.455313;-0.137294
2.380;0.471915;-0.133025
2.390;0.483872;-0.129472
2.400;0.491310;-0.125704
2.410;0.495128;-0.120840
2.420;0.496735;-0.114348
2.430;0.497680;-0.106243
2.440;0.499320;-0.097067
2.450;0.502600;-0.087644
2.460;0.507970;-0.078733
2.470;0.515419;-0.070757
2.480;0.524590;-0.063696
2.490;0.534985;-0.057128
2.500;0.546207;-0.050336
2.510;0.558181;-0.042468
2.520;0.571280;-0.032740
2.530;0.586325;-0.020683
2.540;0.604420;-0.006335
2.550;0.626659;0.009738
2.560;0.653754;0.026626
2.570;0.685723;0.043394
2.580;0.721785;0.059358
2.590;0.760500;0.074227
2.600;0.800084;0.088050
2.610;0.838726;0.101037
2.620;0.874758;0.113324
2.630;0.906687;0.124792
2.640;0.933152;0.135020
2.650;0.952920;0.143386
2.660;0.964963;0.149287
2.670;0.968589;0.152339
2.680;0.963543;0.152468
2.690;0.950025;0.149853
2.700;0.928627;0.144810
2.710;0.900220;0.137683
2.720;0.865848;0.128832
2.730;0.826641;0.118707
2.740;0.783781;0.107940
2.750;0.738531;0.097385
2.760;0.692293;0.088008
2.770;0.646631;0.080685
2.780;0.603193;0.075964
2.790;0.563566;0.073936
2.800;0.529125;0.074214
2.810;0.500939;0.076037
2.820;0.479734;0.078452
2.830;0.465837;0.080559
2.840;0.459116;0.081750
2.850;0.458933;0.081883
2.860;0.464182;0.081308
2.870;0.473419;0.080745
2.880;0.485060;0.081087
2.890;0.497566;0.083184
2.900;0.509548;0.087659
2.910;0.519742;0.094771
2.920;0.526931;0.104323
2.930;0.529922;0.115643
2.940;0.527694;0.127635
2.950;0.519666;0.138970
2.960;0.505918;0.148434
2.970;0.487205;0.155318
2.980;0.464713;0.159690
2.990;0.439683;0.162397
3.000;0.413124;0.164780
3.010;0.385733;0.168228
3.020;0.358027;0.173749
3.030;0.330568;0.181722
3.040;0.304162;0.191865
3.050;0.279930;0.203392
3.060;0.259214;0.215288
3.070;0.243329;0.226647
3.080;0.233250;0.236986
3.090;0.229344;0.246437
3.100;0.231268;0.255748
3.110;0.238053;0.266082
3.120;0.248356;0.278641
3.130;0.260751;0.294240
3.140;0.273954;0.312991
3.150;0.286924;0.334254
3.160;0.298868;0.356890
3.170;0.309198;0.379663
3.180;0.317465;0.401593
3.190;0.323283;0.422103
3.200;0.326244;0.440962
3.210;0.325866;0.458125
3.220;0.321624;0.473599
3.230;0.313058;0.487431
3.240;0.299922;0.499779
3.250;0.282296;0.510993
3.260;0.260637;0.521643
3.270;0.235762;0.532461
3.280;0.208780;0.544207
3.290;0.180996;0.557527
3.300;0.153804;0.572841
3.310;0.128577;0.590310
3.320;0.106549;0.609855
3.330;0.088697;0.631178
3.340;0.075633;0.653780
3.350;0.067545;0.676971
3.360;0.064201;0.699943
3.370;0.065004;0.721932
3.380;0.069080;0.742403
3.390;0.075351;0.761191
3.400;0.082629;0.778501
3.410;0.089708;0.794778
3.420;0.095485;0.810485
3.430;0.099064;0.825856
3.440;0.099845;0.840713
3.450;0.097604;0.854394
3.460;0.092559;0.865852
3.470;0.085364;0.873904
3.480;0.077034;0.877586
3.490;0.068787;0.876489
3.500;0.061873;0.870932
3.510;0.057429;0.861852
3.520;0.056382;0.850473
3.530;0.059371;0.837876
3.540;0.066695;0.824706
3.550;0.078252;0.811110
3.560;0.093495;0.796919
3.570;0.111472;0.781966
3.580;0.130977;0.766365
3.590;0.150806;0.750599
3.600;0.170063;0.735372
3.610;0.188397;0.721283
3.620;0.206110;0.708532
3.630;0.224061;0.696820
3.640;0.243389;0.685497
3.650;0.265096;0.673884
3.660;0.289655;0.661565
3.670;0.316762;0.648534
3.680;0.345354;0.635158
3.690;0.373868;0.622053
3.700;0.400615;0.609931
3.710;0.424103;0.599452
3.720;0.443215;0.591087
3.730;0.457254;0.584988
3.740;0.465906;0.580901
3.750;0.469197;0.578205
3.760;0.467438;0.576092
3.770;0.461194;0.573850
3.780;0.451264;0.571113
3.790;0.438636;0.567994
3.800;0.424398;0.565049
3.810;0.409592;0.563107
3.820;0.395051;0.563040
3.830;0.381302;0.565558
3.840;0.368604;0.571075
3.850;0.357107;0.579666
3.860;0.347064;0.591108
3.870;0.338966;0.604956
3.880;0.333531;0.620627
3.890;0.331574;0.637501
3.900;0.333821;0.655057
3.910;0.340744;0.673020
3.920;0.352474;0.691450
3.930;0.368788;0.710704
3.940;0.389159;0.731240
3.950;0.412847;0.753369
3.960;0.439002;0.777063
3.970;0.466729;0.801915
3.980;0.495122;0.827226
3.990;0.523268;0.852163
4.000;0.550244;0.875908
4.010;0.575117;0.897786
4.020;0.596955;0.917365
4.030;0.614885;0.934518
4.040;0.628163;0.949359
4.050;0.636216;0.962047
4.060;0.638607;0.972509
4.070;0.634949;0.980233
4.080;0.624799;0.984258
4.090;0.607639;0.983444
4.100;0.583027;0.976920
4.110;0.550915;0.964538
4.120;0.512015;0.947109
4.130;0.468002;0.926331
4.140;0.421406;0.904448
4.150;0.375157;0.883776
4.160;0.331978;0.866234
4.170;0.293866;0.853017
4.180;0.261900;0.844509
4.190;0.236418;0.840431
4.200;0.217407;0.840141
4.210;0.204876;0.842933
4.220;0.199061;0.848254
4.230;0.200408;0.855774
4.240;0.209385;0.865337
4.250;0.226197;0.876810
4.260;0.250483;0.889911
4.270;0.281078;0.904102
4.280;0.315952;0.918583
4.290;0.352364;0.932402
4.300;0.387259;0.944623
4.310;0.417837;0.954500
4.320;0.442118;0.961622
4.330;0.459277;0.965971
4.340;0.469569;0.967892
4.350;0.473885;0.967951
4.360;0.473165;0.966725
4.370;0.467943;0.964576
4.380;0.458237;0.961501
4.390;0.443778;0.957130
4.400;0.424414;0.950903
4.410;0.400486;0.942357
4.420;0.373027;0.931425
4.430;0.343727;0.918640
4.440;0.314711;0.905137
4.450;0.288217;0.892416
4.460;0.266266;0.881940
4.470;0.250396;0.874710
4.480;0.241512;0.871015
4.490;0.239858;0.870448
4.500;0.245139;0.872149
4.510;0.256729;0.875174
4.520;0.273905;0.878823
4.530;0.296015;0.882792
4.540;0.322525;0.887118
4.550;0.352990;0.891954
4.560;0.387011;0.897328
4.570;0.424220;0.903009
4.580;0.464269;0.908572
4.590;0.506784;0.913595
4.600;0.551340;0.917838
4.610;0.597459;0.921295
4.620;0.644697;0.924076
4.630;0.692749;0.926200
4.640;0.741510;0.927430
4.650;0.791045;0.927259
4.660;0.841485;0.925059
4.670;0.892911;0.920342
4.680;0.945294;0.912991
4.690;0.998519;0.903358
4.700;1.052476;0.892230
4.710;1.107193;0.880668
4.720;1.162937;0.869760
4.730;1.220230;0.860319
4.740;1.279718;0.852635
4.750;1.341940;0.846412
4.760;1.407079;0.840976
4.770;1.474820;0.835665
4.780;1.544372;0.830218
4.790;1.614642;0.824944
4.800;1.684513;0.820564
4.810;1.753099;0.817813
4.820;1.819893;0.817036
4.830;1.884757;0.818007
4.840;1.947806;0.820036
4.850;2.009266;0.822249
4.860;2.069384;0.823859
4.870;2.128420;0.824344
4.880;2.186655;0.823519
4.890;2.244385;0.821548
4.900;2.301874;0.818891
4.910;2.359325;0.816180
4.920;2.416914;0.814077
4.930;2.474893;0.813123
4.940;2.533686;0.813606
4.950;2.593903;0.815485
4.960;2.656186;0.818397
4.970;2.720958;0.821772
4.980;2.788187;0.825004
4.990;2.857309;0.827579
5.000;2.927407;0.829115
5.010;2.997533;0.829309
5.020;3.067049;0.827874
5.030;3.135756;0.824515
5.040;3.203776;0.818953
5.050;3.271240;0.810980
5.060;3.337975;0.800475
5.070;3.403325;0.787411
5.080;3.466174;0.771865
5.090;3.525147;0.754063
5.100;3.578917;0.734405
5.110;3.626510;0.713391
5.120;3.667511;0.691440
5.130;3.702099;0.668722
5.140;3.730913;0.645082
5.150;3.754796;0.620115
5.160;3.774534;0.593349
5.170;3.790660;0.564458
5.180;3.803409;0.533403
5.190;3.812811;0.500474
5.200;3.818876;0.466225
5.210;3.821824;0.431352
5.220;3.822264;0.396534
5.230;3.821244;0.362311
5.240;3.820138;0.328985
5.250;3.820421;0.296556
5.260;3.823445;0.264708
5.270;3.830264;0.232854
5.280;3.841540;0.200272
5.290;3.857484;0.166312
5.300;3.877854;0.130605
5.310;3.902028;0.093216
5.320;3.929137;0.054675
5.330;3.958201;0.015862
5.340;3.988254;-0.022228
5.350;4.018410;-0.058765
5.360;4.047890;-0.093315
5.370;4.076025;-0.125927
5.380;4.102260;-0.157057
5.390;4.126188;-0.187367
5.400;4.147570;-0.217498
5.410;4.166346;-0.247883
5.420;4.182626;-0.278608
5.430;4.196702;-0.309339
5.440;4.209022;-0.339322
5.450;4.220095;-0.367532
5.460;4.230325;-0.392918
5.470;4.239862;-0.414646
5.480;4.248540;-0.432251
5.490;4.255948;-0.445631
5.500;4.261548;-0.454990
5.510;4.264795;-0.460766
5.520;4.265218;-0.463580
5.530;4.262474;-0.464194
5.540;4.256389;-0.463458
5.550;4.246956;-0.462268
5.560;4.234286;-0.461520
5.570;4.218504;-0.462033
5.580;4.199667;-0.464423
5.590;4.177713;-0.468966
5.600;4.152429;-0.475497
5.610;4.123375;-0.483431
5.620;4.089793;-0.491960
5.630;4.050589;-0.500379
5.640;4.004499;-0.508427
5.650;3.950418;-0.516454
5.660;3.887768;-0.525311
5.670;3.816733;-0.535958
5.680;3.738278;-0.548954
5.690;3.653918;-0.564054
5.700;3.565355;-0.580105
5.710;3.474089;-0.595278
5.720;3.381175;-0.607532
5.730;3.287193;-0.615181
5.740;3.192418;-0.617403
5.750;3.097045;-0.614511
5.760;3.001334;-0.607880
5.770;2.905635;-0.599554
5.780;2.810407;-0.591701
5.790;2.716320;-0.586122
5.800;2.624455;-0.583951
5.810;2.536497;-0.585550
5.820;2.454712;-0.590538
5.830;2.381600;-0.597902
5.840;2.319278;-0.606185
5.850;2.268806;-0.613779
5.860;2.229787;-0.619280
5.870;2.200372;-0.621814
5.880;2.177686;-0.621220
5.890;2.158474;-0.618036
5.900;2.139781;-0.613314
5.910;2.119434;-0.608327
5.920;2.096224;-0.604275
5.930;2.069772;-0.602045
5.940;2.040212;-0.602070
5.950;2.007873;-0.604338
5.960;1.973107;-0.608552
5.970;1.936277;-0.614400
5.980;1.897841;-0.621843
5.990;1.858416;-0.631202
6.000;1.818785;-0.642997
6.010;1.779817;-0.657548
6.020;1.742336;-0.674595
6.030;1.707033;-0.693149
6.040;1.674431;-0.711720
6.050;1.644943;-0.728791
6.060;1.618942;-0.743308
6.070;1.596781;-0.754918
6.080;1.578737;-0.763927
6.090;1.564893;-0.771054
6.100;1.554995;-0.777162
6.110;1.548369;-0.783032
6.120;1.543946;-0.789217
6.130;1.540428;-0.795920
6.140;1.536537;-0.802934
6.150;1.531242;-0.809704
6.160;1.523886;-0.815564
6.170;1.514199;-0.820087
6.180;1.502185;-0.823370
6.190;1.487897;-0.826041
6.200;1.471179;-0.828977
6.210;1.451527;-0.832862
6.220;1.428186;-0.837864
6.230;1.400460;-0.843528
6.240;1.368097;-0.848915
6.250;1.331536;-0.852865
6.260;1.291892;-0.854281
6.270;1.250718;-0.852367
6.280;1.209658;-0.846815
6.290;1.170148;-0.837936
6.300;1.133225;-0.826720
6.310;1.099471;-0.814733
6.320;1.069028;-0.803839
6.330;1.041662;-0.795761
6.340;1.016792;-0.791623
6.350;0.993486;-0.791614
6.360;0.970505;-0.794898
6.370;0.946495;-0.799830
6.380;0.920327;-0.804424
6.390;0.891451;-0.806930
6.400;0.860058;-0.806350
6.410;0.826944;-0.802748
6.420;0.793109;-0.797234
6.430;0.759290;-0.791610
6.440;0.725646;-0.787760
6.450;0.691704;-0.787035
6.460;0.656567;-0.789869
6.470;0.619245;-0.795799
6.480;0.578979;-0.803801
6.490;0.535447;-0.812746
6.500;0.488827;-0.821752
6.510;0.439708;-0.830325
6.520;0.388882;-0.838289
6.530;0.337102;-0.845583
6.540;0.284898;-0.852048
6.550;0.232552;-0.857293
6.560;0.180260;-0.860703
6.570;0.128391;-0.861618
6.580;0.077682;-0.859584
6.590;0.029221;-0.854578
6.600;-0.015786;-0.847054
6.610;-0.056367;-0.837802
6.620;-0.092071;-0.827668
6.630;-0.123075;-0.817292
6.640;-0.150110;-0.806931
6.650;-0.174278;-0.796410
6.660;-0.196838;-0.785199
6.670;-0.218989;-0.772590
6.680;-0.241644;-0.757897
6.690;-0.265238;-0.740603
6.700;-0.289614;-0.720421
6.710;-0.314048;-0.697309
6.720;-0.337450;-0.671478
6.730;-0.358691;-0.643428
6.740;-0.376957;-0.613967
6.750;-0.392030;-0.584159
6.760;-0.404393;-0.555134
6.770;-0.415148;-0.527813
6.780;-0.425759;-0.502657
6.790;-0.437679;-0.479604
6.800;-0.451972;-0.458210
6.810;-0.469049;-0.437921
6.820;-0.488579;-0.418308
6.830;-0.509586;-0.399192
6.840;-0.530661;-0.380650
6.850;-0.550214;-0.362966
6.860;-0.566727;-0.346551
6.870;-0.578973;-0.331823
6.880;-0.586156;-0.319069
6.890;-0.587945;-0.308337
6.900;-0.584369;-0.299426
6.910;-0.575650;-0.291986
6.920;-0.562059;-0.285666
6.930;-0.543877;-0.280282
6.940;-0.521483;-0.275933
6.950;-0.495495;-0.273049
6.960;-0.466890;-0.272306
6.970;-0.437011;-0.274389
6.980;-0.407435;-0.279682
6.990;-0.379719;-0.287976
7.000;-0.355058;-0.298339
7.010;-0.333975;-0.309225
7.020;-0.316158;-0.318808
7.030;-0.300558;-0.325434
7.040;-0.285751;-0.328002
7.050;-0.270423;-0.326142
7.060;-0.253748;-0.320139
7.070;-0.235497;-0.310674
7.080;-0.215886;-0.298511
7.090;-0.195279;-0.284218
7.100;-0.173878;-0.268019
7.110;-0.151528;-0.249778
7.120;-0.127668;-0.229129
7.130;-0.101442;-0.205704
7.140;-0.071932;-0.179379
7.150;-0.038417;-0.150445
7.160;-0.000574;-0.119626
7.170;0.041437;-0.087941
7.180;0.086991;-0.056472
7.190;0.135113;-0.026154
7.200;0.184704;0.002347
7.210;0.234799;0.028633
7.220;0.284790;0.052514
7.230;0.334499;0.073957
7.240;0.384072;0.093075
7.250;0.433761;0.110132
7.260;0.483681;0.125534
7.270;0.533652;0.139768
7.280;0.583178;0.153286
7.290;0.631560;0.166368
7.300;0.678065;0.179031
7.310;0.722072;0.191039
7.320;0.763129;0.202056
7.330;0.800928;0.211869
7.340;0.835265;0.220558
7.350;0.866040;0.228498
7.360;0.893320;0.236191
7.370;0.917452;0.244012
7.380;0.939136;0.252008
7.390;0.959373;0.259841
7.400;0.979267;0.266917
7.410;0.999704;0.272639
7.420;1.021058;0.276691
7.430;1.043086;0.279209
7.440;1.065048;0.280750
7.450;1.086012;0.282066
7.460;1.105190;0.283785
7.470;1.122180;0.286151
7.480;1.137070;0.288953
7.490;1.150415;0.291650
7.500;1.163061;0.293618
7.510;1.175848;0.294393
7.520;1.189285;0.293804
7.530;1.203328;0.291990
7.540;1.217373;0.289302
7.550;1.230446;0.286123
7.560;1.241473;0.282669
7.570;1.249503;0.278865
7.580;1.253789;0.274354
7.590;1.253736;0.268608
7.600;1.248808;0.261087
7.610;1.238512;0.251382
7.620;1.222524;0.239312
7.630;1.200919;0.224982
7.640;1.174377;0.208805
7.650;1.144234;0.191504
7.660;1.112327;0.174086
7.670;1.080673;0.157755
7.680;1.051112;0.143705
7.690;1.025030;0.132799
7.700;1.003247;0.125266
7.710;0.986068;0.120574
7.720;0.973416;0.117575
7.730;0.964998;0.114886
7.740;0.960434;0.111361
7.750;0.959390;0.106500
7.760;0.961670;0.100628
7.770;0.967269;0.094783
7.780;0.976346;0.090346
7.790;0.989092;0.088533
7.800;1.005552;0.089942
7.810;1.025469;0.094341
7.820;1.048258;0.100771
7.830;1.073112;0.107915
7.840;1.099166;0.114537
7.850;1.125594;0.119819
7.860;1.151554;0.123483
7.870;1.176043;0.125708
7.880;1.197802;0.126949
7.890;1.215409;0.127727
7.900;1.227531;0.128468
7.910;1.233198;0.129370
7.920;1.231960;0.130360
7.930;1.223897;0.131139
7.940;1.209534;0.131357
7.950;1.189713;0.130810
7.960;1.165441;0.129577
7.970;1.137719;0.127996
7.980;1.107424;0.126536
7.990;1.075287;0.125629
8.000;1.041993;0.125551
8.010;1.008299;0.126388
8.020;0.975078;0.128091
8.030;0.943209;0.130563
8.040;0.913392;0.133724
8.050;0.886012;0.137513
8.060;0.861158;0.141862
8.070;0.838779;0.146687
8.080;0.818878;0.151931
8.090;0.801630;0.157580
8.100;0.787363;0.163616
8.110;0.776434;0.169931
