Time[s];COPx[cm];COPy[cm]
0.010;0.408949;2.706708
0.020;0.382221;2.725029
0.030;0.354582;2.742974
0.040;0.325688;2.759922
0.050;0.295626;2.775086
0.060;0.264718;2.787660
0.070;0.233170;2.797002
0.080;0.200803;2.802767
0.090;0.167058;2.804920
0.100;0.131290;2.803635
0.110;0.093166;2.799152
0.120;0.052982;2.791660
0.130;0.011738;2.781259
0.140;-0.029002;2.768017
0.150;-0.067406;2.752064
0.160;-0.101687;2.733654
0.170;-0.130369;2.713128
0.180;-0.152431;2.690817
0.190;-0.167359;2.666932
0.200;-0.175119;2.641557
0.210;-0.176080;2.614732
0.220;-0.170890;2.586582
0.230;-0.160301;2.557395
0.240;-0.144985;2.527554
0.250;-0.125405;2.497360
0.260;-0.101792;2.466813
0.270;-0.074234;2.435496
0.280;-0.042837;2.402657
0.290;-0.007862;2.367480
0.300;0.030210;2.329412
0.310;0.070714;2.288388
0.320;0.112909;2.244865
0.330;0.156067;2.199715
0.340;0.199477;2.154061
0.350;0.242357;2.109128
0.360;0.283773;2.066138
0.370;0.322670;2.026237
0.380;0.358056;1.990442
0.390;0.389290;1.959581
0.400;0.416323;1.934197
0.410;0.439780;1.914430
0.420;0.460819;1.899966
0.430;0.480794;1.890102
0.440;0.500847;1.883935
0.450;0.521567;1.880594
0.460;0.542844;1.879406
0.470;0.563984;1.879940
0.480;0.584006;1.881919
0.490;0.602023;1.885091
0.500;0.617566;1.889116
0.510;0.630759;1.893547
0.520;0.642320;1.897879
0.530;0.653382;1.901626
0.540;0.665237;1.904375
0.550;0.679056;1.905748
0.560;0.695651;1.905310
0.570;0.715320;1.902481
0.580;0.737827;1.896573
0.590;0.762527;1.886968
0.600;0.788604;1.873356
0.610;0.815323;1.855874
0.620;0.842198;1.835077
0.630;0.869018;1.811736
0.640;0.895729;1.786574
0.650;0.922240;1.760049
0.660;0.948262;1.732282
0.670;0.973244;1.703169
0.680;0.996458;1.672579
0.690;1.017182;1.640566
0.700;1.034895;1.607525
0.710;1.049390;1.574236
0.720;1.060723;1.541772
0.730;1.069024;1.511264
0.740;1.074268;1.483580
0.750;1.076170;1.459047
0.760;1.074264;1.437321
0.770;1.068162;1.417446
0.780;1.057800;1.398067
0.790;1.043560;1.377727
0.800;1.026184;1.355203
0.810;1.006570;1.329870
0.820;0.985556;1.301993
0.830;0.963812;1.272871
0.840;0.941873;1.244699
0.850;0.920269;1.220136
0.860;0.899671;1.201686
0.870;0.880955;1.191091
0.880;0.865167;1.188983
0.890;0.853407;1.194901
0.900;0.846702;1.207637
0.910;0.845902;1.225712
0.920;0.851632;1.247751
0.930;0.864295;1.272635
0.940;0.884121;1.299420
0.950;0.911240;1.327167
0.960;0.945726;1.354835
0.970;0.987586;1.381349
0.980;1.036650;1.405811
0.990;1.092419;1.427746
1.000;1.153937;1.447223
1.010;1.219786;1.464749
1.020;1.288217;1.480962
1.030;1.357395;1.496243
1.040;1.425652;1.510408
1.050;1.491644;1.522618
1.060;1.554359;1.531521
1.070;1.612997;1.535608
1.080;1.666823;1.533681
1.090;1.715091;1.525289
1.100;1.757079;1.510966
1.110;1.792190;1.492194
1.120;1.820056;1.471091
1.130;1.840575;1.449926
1.140;1.853871;1.430562
1.150;1.860226;1.413958
1.160;1.860030;1.399899
1.170;1.853802;1.387056
1.180;1.842238;1.373448
1.190;1.826247;1.357150
1.200;1.806925;1.337030
1.210;1.785466;1.313216
1.220;1.763043;1.287117
1.230;1.740715;1.260951
1.240;1.719397;1.236954
1.250;1.699892;1.216578
1.260;1.682917;1.200027
1.270;1.669102;1.186293
1.280;1.658950;1.173646
1.290;1.652796;1.160314
1.300;1.650787;1.145056
1.310;1.652862;1.127436
1.320;1.658739;1.107754
1.330;1.667930;1.086742
1.340;1.679819;1.065198
1.350;1.693810;1.043710
1.360;1.709496;1.022554
1.370;1.726799;1.001776
1.380;1.745995;0.981374
1.390;1.767581;0.961483
1.400;1.792033;0.942479
1.410;1.819537;0.924988
1.420;1.849808;0.909839
1.430;1.882077;0.897987
1.440;1.915212;0.890432
1.450;1.947916;0.888061
1.460;1.978914;0.891452
1.470;2.007091;0.900647
1.480;2.031588;0.915013
1.490;2.051841;0.933256
1.500;2.067590;0.953603
1.510;2.078874;0.974133
1.520;2.086011;0.993115
1.530;2.089583;1.009280
1.540;2.090386;1.021914
1.550;2.089347;1.030814
1.560;2.087411;1.036170
1.570;2.085435;1.038473
1.580;2.084094;1.038445
1.590;2.083849;1.036971
1.600;2.084978;1.034993
1.610;2.087680;1.033379
1.620;2.092162;1.032816
1.630;2.098628;1.033752
1.640;2.107161;1.036393
1.650;2.117557;1.040717
1.660;2.129227;1.046502
1.670;2.141246;1.053355
1.680;2.152555;1.060759
1.690;2.162231;1.068179
1.700;2.169718;1.075177
1.710;2.174911;1.081491
1.720;2.178087;1.087011
1.730;2.179709;1.091640
1.740;2.180198;1.095151
1.750;2.179770;1.097163
1.760;2.178416;1.097282
1.770;2.176009;1.095350
1.780;2.172474;1.091634
1.790;2.167922;1.086860
1.800;2.162692;1.082041
1.810;2.157314;1.078188
1.820;2.152430;1.075981
1.830;2.148724;1.075555
1.840;2.146892;1.076481
1.850;2.147638;1.077990
1.860;2.151646;1.079321
1.870;2.159477;1.080075
1.880;2.171414;1.080424
1.890;2.187319;1.081157
1.900;2.206583;1.083536
1.910;2.228198;1.089013
1.920;2.250934;1.098863
1.930;2.273575;1.113848
1.940;2.295142;1.134012
1.950;2.315044;1.158647
1.960;2.333086;1.186391
1.970;2.349315;1.215404
1.980;2.363774;1.243607
1.990;2.376271;1.268994
2.000;2.386259;1.289989
2.010;2.392888;1.305778
2.020;2.395157;1.316467
2.030;2.392135;1.323000
2.040;2.383176;1.326827
2.050;2.368102;1.329459
2.060;2.347285;1.332082
2.070;2.321592;1.335364
2.080;2.292172;1.339500
2.090;2.260153;1.344419
2.100;2.226378;1.350043
2.110;2.191281;1.356423
2.120;2.154924;1.363714
2.130;2.117143;1.372018
2.140;2.077728;1.381238
2.150;2.036542;1.391034
2.160;1.993540;1.400913
2.170;1.948696;1.410401
2.180;1.901926;1.419221
2.190;1.853092;1.427384
2.200;1.802153;1.435185
2.210;1.749412;1.443067
2.220;1.695721;1.451458
2.230;1.642495;1.460634
2.240;1.591451;1.470713
2.250;1.544142;1.481772
2.260;1.501479;1.493994
2.270;1.463442;1.507778
2.280;1.429073;1.523742
2.290;1.396740;1.542669
2.300;1.364519;1.565417
2.310;1.330589;1.592809
2.320;1.293506;1.625504
2.330;1.252353;1.663861
2.340;1.206760;1.707801
2.350;1.156850;1.756715
2.360;1.103131;1.809480
2.370;1.046366;1.864575
2.380;0.987484;1.920307
2.390;0.927549;1.975061
2.400;0.867819;2.027546
2.410;0.809820;2.076976
2.420;0.755333;2.123187
2.430;0.706223;2.166662
2.440;0.664121;2.208433
2.450;0.630112;2.249869
2.460;0.604563;2.292352
2.470;0.587165;2.336949
2.480;0.577138;2.384191
2.490;0.573481;2.434036
2.500;0.575160;2.485994
2.510;0.581165;2.539314
2.520;0.590461;2.593137
2.530;0.601889;2.646594
2.540;0.614115;2.698878
2.550;0.625675;2.749304
2.560;0.635111;2.797337
2.570;0.641133;2.842621
2.580;0.642741;2.884979
2.590;0.639295;2.924414
2.600;0.630535;2.961080
2.610;0.616573;2.995198
2.620;0.597846;3.026932
2.630;0.575009;3.056227
2.640;0.548760;3.082659
2.650;0.519645;3.105341
2.660;0.487846;3.122974
2.670;0.453030;3.134112
2.680;0.414319;3.137610
2.690;0.370477;3.133133
2.700;0.320362;3.121503
2.710;0.263556;3.104719
2.720;0.200963;3.085593
2.730;0.135080;3.067078
2.740;0.069749;3.051514
2.750;0.009388;3.040042
2.760;-0.042037;3.032402
2.770;-0.081936;3.027239
2.780;-0.109543;3.022758
2.790;-0.125748;3.017448
2.800;-0.132450;3.010557
2.810;-0.131763;3.002180
2.820;-0.125412;2.993032
2.830;-0.114500;2.984105
2.840;-0.099593;2.976349
2.850;-0.081015;2.970466
2.860;-0.059161;2.966805
2.870;-0.034730;2.965336
2.880;-0.008824;2.965657
2.890;0.017094;2.967046
2.900;0.041367;2.968567
2.910;0.062388;2.969244
2.920;0.078832;2.968261
2.930;0.089826;2.965105
2.940;0.095012;2.959568
2.950;0.094521;2.951618
2.960;0.088888;2.941257
2.970;0.078914;2.928479
2.980;0.065501;2.913386
2.990;0.049518;2.896353
3.000;0.031745;2.878082
3.010;0.012920;2.859459
3.020;-0.006191;2.841308
3.030;-0.024761;2.824194
3.040;-0.041947;2.808391
3.050;-0.056965;2.793987
3.060;-0.069148;2.781016
3.070;-0.077952;2.769508
3.080;-0.082955;2.759464
3.090;-0.083902;2.750795
3.100;-0.080774;2.743328
3.110;-0.073823;2.736900
3.120;-0.063498;2.731498
3.130;-0.050266;2.727393
3.140;-0.034422;2.725165
3.150;-0.016015;2.725643
3.160;0.005063;2.729773
3.170;0.028851;2.738489
3.180;0.055090;2.752590
3.190;0.083100;2.772612
3.200;0.111838;2.798721
3.210;0.140102;2.830652
3.220;0.166797;2.867741
3.230;0.191160;2.909075
3.240;0.212847;2.953730
3.250;0.231834;3.000983
3.260;0.248166;3.050396
3.270;0.261672;3.101703
3.280;0.271810;3.154561
3.290;0.277708;3.208344
3.300;0.278388;3.262127
3.310;0.273042;3.314885
3.320;0.261252;3.365793
3.330;0.243086;3.414420
3.340;0.219089;3.460701
3.350;0.190201;3.504717
3.360;0.157672;3.546438
3.370;0.123021;3.585567
3.380;0.088054;3.621537
3.390;0.054861;3.653636
3.400;0.025697;3.681168
3.410;0.002657;3.703598
3.420;-0.012744;3.720598
3.430;-0.019935;3.732041
3.440;-0.019432;3.737971
3.450;-0.012691;3.738596
3.460;-0.001732;3.734330
3.470;0.011349;3.725817
3.480;0.024812;3.713934
3.490;0.037546;3.699735
3.500;0.049108;3.684308
3.510;0.059585;3.668577
3.520;0.069337;3.653113
3.530;0.078730;3.638089
3.540;0.087922;3.623405
3.550;0.096751;3.608933
3.560;0.104750;3.594725
3.570;0.111271;3.581065
3.580;0.115686;3.568343
3.590;0.117591;3.556838
3.600;0.116938;3.546539
3.610;0.114037;3.537139
3.620;0.109469;3.528201
3.630;0.103931;3.519408
3.640;0.098112;3.510736
3.650;0.092617;3.502445
3.660;0.087957;3.494909
3.670;0.084594;3.488385
3.680;0.082990;3.482881
3.690;0.083647;3.478175
3.700;0.087119;3.473940
3.710;0.093968;3.469867
3.720;0.104699;3.465710
3.730;0.119677;3.461238
3.740;0.139074;3.456175
3.750;0.162839;3.450177
3.760;0.190695;3.442888
3.770;0.222174;3.434053
3.780;0.256666;3.423636
3.790;0.293529;3.411896
3.800;0.332214;3.399348
3.810;0.372365;3.386629
3.820;0.413796;3.374293
3.830;0.456343;3.362647
3.840;0.499662;3.351700
3.850;0.543084;3.341243
3.860;0.585620;3.331012
3.870;0.626122;3.320794
3.880;0.663493;3.310424
3.890;0.696840;3.299659
3.900;0.725495;3.288074
3.910;0.748915;3.275069
3.920;0.766587;3.260002
3.930;0.778044;3.242368
3.940;0.783025;3.221943
3.950;0.781692;3.198821
3.960;0.774789;3.173330
3.970;0.763625;3.145878
3.980;0.749874;3.116797
3.990;0.735278;3.086251
4.000;0.721361;3.054236
4.010;0.709261;3.020642
4.020;0.699699;2.985366
4.030;0.693058;2.948459
4.040;0.689508;2.910275
4.050;0.689103;2.871531
4.060;0.691825;2.833216
4.070;0.697570;2.796381
4.080;0.706087;2.761896
4.090;0.716892;2.730294
4.100;0.729215;2.701711
4.110;0.742017;2.675912
4.120;0.754079;2.652368
4.130;0.764160;2.630326
4.140;0.771174;2.608891
4.150;0.774352;2.587114
4.160;0.773337;2.564141
4.170;0.768174;2.539385
4.180;0.759179;2.512678
4.190;0.746723;2.484329
4.200;0.730980;2.455032
4.210;0.711765;2.425664
4.220;0.688505;2.397017
4.230;0.660401;2.369601
4.240;0.626705;2.343555
4.250;0.587018;2.318708
4.260;0.541488;2.294708
4.270;0.490864;2.271169
4.280;0.436397;2.247808
4.290;0.379617;2.224556
4.300;0.322059;2.201625
4.310;0.265050;2.179531
4.320;0.209634;2.159031
4.330;0.156656;2.141012
4.340;0.106958;2.126337
4.350;0.061553;2.115673
4.360;0.021684;2.109303
4.370;-0.011276;2.106970
4.380;-0.036037;2.107818
4.390;-0.051612;2.110486
4.400;-0.057491;2.113416
4.410;-0.053715;2.115276
4.420;-0.040861;2.115366
4.430;-0.019926;2.113825
4.440;0.007840;2.111551
4.450;0.041135;2.109854
4.460;0.078738;2.109939
4.470;0.119574;2.112424
4.480;0.162699;2.117069
4.490;0.207274;2.122819
4.500;0.252585;2.128120
4.510;0.298129;2.131345
4.520;0.343736;2.131175
4.530;0.389633;2.126858
4.540;0.436381;2.118325
4.550;0.484629;2.106195
4.560;0.534786;2.091640
4.570;0.586742;2.076122
4.580;0.639789;2.061005
4.590;0.692780;2.047139
4.600;0.744431;2.034558
4.610;0.793625;2.022424
4.620;0.839614;2.009279
4.630;0.882064;1.993501
4.640;0.920963;1.973806
4.650;0.956430;1.949594
4.660;0.988509;1.921053
4.670;1.016999;1.889019
4.680;1.041410;1.854692
4.690;1.061017;1.819334
4.700;1.074993;1.784007
4.710;1.082590;1.749406
4.720;1.083317;1.715805
4.730;1.077072;1.683145
4.740;1.064204;1.651245
4.750;1.045473;1.620100
4.760;1.021945;1.590104
4.770;0.994821;1.562093
4.780;0.965247;1.537151
4.790;0.934131;1.516254
4.800;0.902026;1.499915
4.810;0.869106;1.487967
4.820;0.835263;1.479573
4.830;0.800255;1.473439
4.840;0.763857;1.468144
4.850;0.725986;1.462484
4.860;0.686778;1.455726
4.870;0.646614;1.447735
4.880;0.606100;1.438944
4.890;0.566007;1.430181
4.900;0.527213;1.422429
4.910;0.490641;1.416584
4.920;0.457215;1.413292
4.930;0.427838;1.412885
4.940;0.403398;1.415417
4.950;0.384769;1.420754
4.960;0.372762;1.428696
4.970;0.368014;1.439095
4.980;0.370811;1.451914
4.990;0.380950;1.467212
5.000;0.397702;1.485089
5.010;0.419935;1.505649
5.020;0.446319;1.529022
5.030;0.475535;1.555413
5.040;0.506383;1.585116
5.050;0.537801;1.618448
5.060;0.568820;1.655596
5.070;0.598473;1.696470
5.080;0.625689;1.740663
5.090;0.649221;1.787556
5.100;0.667616;1.836497
5.110;0.679253;1.886935
5.120;0.682425;1.938410
5.130;0.675480;1.990404
5.140;0.657014;2.042160
5.150;0.626083;2.092573
5.160;0.582405;2.140247
5.170;0.526521;2.183677
5.180;0.459844;2.221511
5.190;0.384560;2.252802
5.200;0.303332;2.277202
5.210;0.218841;2.295069
5.220;0.133303;2.307417
5.230;0.048123;2.315736
5.240;-0.036161;2.321721
5.250;-0.119646;2.326953
5.260;-0.202630;2.332610
5.270;-0.285110;2.339234
5.280;-0.366382;2.346618
5.290;-0.444864;2.353855
5.300;-0.518219;2.359574
5.310;-0.583791;2.362308
5.320;-0.639220;2.360908
5.330;-0.683046;2.354855
5.340;-0.715053;2.344381
5.350;-0.736234;2.330376
5.360;-0.748434;2.314147
5.370;-0.753836;2.297118
5.380;-0.754479;2.280533
5.390;-0.751898;2.265217
5.400;-0.746952;2.251413
5.410;-0.739836;2.238771
5.420;-0.730245;2.226472
5.430;-0.717624;2.213473
5.440;-0.701400;2.198738
5.450;-0.681114;2.181384
5.460;-0.656409;2.160674
5.470;-0.626888;2.135964
5.480;-0.591946;2.106663
5.490;-0.550669;2.072323
5.500;-0.501892;2.032825
5.510;-0.444461;1.988597
5.520;-0.377594;1.940730
5.530;-0.301226;1.890917
5.540;-0.216198;1.841209
5.550;-0.124233;1.793683
5.560;-0.027728;1.750100
5.570;0.070546;1.711611
5.580;0.167771;1.678570
5.590;0.261370;1.650484
5.600;0.349202;1.626127
5.610;0.429654;1.603826
5.620;0.501599;1.581845
5.630;0.564249;1.558779
5.640;0.616960;1.533823
5.650;0.659063;1.506837
5.660;0.689827;1.478202
5.670;0.708588;1.448562
5.680;0.715017;1.418576
5.690;0.709377;1.388740
5.700;0.692640;1.359328
5.710;0.666390;1.330398
5.720;0.632498;1.301833
5.730;0.592683;1.273339
5.740;0.548077;1.244377
5.750;0.498973;1.214083
5.760;0.444885;1.181258
5.770;0.384959;1.144482
5.780;0.318611;1.102403
5.790;0.246187;1.054137
5.800;0.169410;0.999656
5.810;0.091465;0.940004
5.820;0.016644;0.877210
5.830;-0.050381;0.813913
5.840;-0.105473;0.752809
5.850;-0.145846;0.696129
5.860;-0.170550;0.645271
5.870;-0.180438;0.600631
5.880;-0.177663;0.561637
5.890;-0.164902;0.526957
5.900;-0.144624;0.494870
5.910;-0.118619;0.463711
5.920;-0.087878;0.432316
5.930;-0.052753;0.400311
5.940;-0.013250;0.368194
5.950;0.030650;0.337187
5.960;0.078736;0.308956
5.970;0.130422;0.285308
5.980;0.184747;0.267962
5.990;0.240524;0.258368
6.000;0.296587;0.257571
6.010;0.352074;0.266122
6.020;0.406625;0.284066
6.030;0.460442;0.310995
6.040;0.514148;0.346153
6.050;0.568478;0.388574
6.060;0.623887;0.437223
6.070;0.680267;0.491120
6.080;0.736897;0.549384
6.090;0.792687;0.611161
6.100;0.846561;0.675521
6.110;0.897806;0.741405
6.120;0.946201;0.807680
6.130;0.991909;0.873309
6.140;1.035225;0.937527
6.150;1.076318;0.999950
6.160;1.115076;1.060598
6.170;1.151076;1.119831
6.180;1.183654;1.178241
6.190;1.212030;1.236495
6.200;1.235428;1.295149
6.210;1.253166;1.354476
6.220;1.264711;1.414398
6.230;1.269692;1.474555
6.240;1.267913;1.534456
6.250;1.259363;1.593653
6.260;1.244270;1.651859
6.270;1.223198;1.709026
6.280;1.197126;1.765351
6.290;1.167467;1.821200
6.300;1.135980;1.876972
6.310;1.104605;1.932963
6.320;1.075264;1.989319
6.330;1.049698;2.046110
6.340;1.029341;2.103469
6.350;1.015254;2.161659
6.360;1.008111;2.220980
6.370;1.008232;2.281502
6.380;1.015658;2.342748
6.390;1.030206;2.403499
6.400;1.051502;2.461876
6.410;1.078966;2.515742
6.420;1.111791;2.563265
6.430;1.148952;2.603423
6.440;1.189231;2.636207
6.450;1.231263;2.662451
6.460;1.273608;2.683388
6.470;1.314845;2.700134
6.480;1.353693;2.713328
6.490;1.389114;2.723058
6.500;1.420342;2.729034
6.510;1.446863;2.730886
6.520;1.468379;2.728392
6.530;1.484809;2.721607
6.540;1.496328;2.710904
6.550;1.503408;2.696998
6.560;1.506809;2.680973
6.570;1.507525;2.664252
6.580;1.506675;2.648485
6.590;1.505356;2.635321
6.600;1.504495;2.626116
6.610;1.504749;2.621637
6.620;1.506506;2.621883
6.630;1.509988;2.626143
6.640;1.515390;2.633310
6.650;1.523002;2.642347
6.660;1.533268;2.652667
6.670;1.546734;2.664246
6.680;1.563904;2.677398
6.690;1.585022;2.692387
6.700;1.609890;2.709089
6.710;1.637811;2.726940
6.720;1.667701;2.745182
6.730;1.698334;2.763268
6.740;1.728626;2.781170
6.750;1.757848;2.799419
6.760;1.785703;2.818841
6.770;1.812235;2.840147
6.780;1.837611;2.863598
6.790;1.861871;2.888867
6.800;1.884724;2.915130
6.810;1.905489;2.941279
6.820;1.923180;2.966139
6.830;1.936722;2.988666
6.840;1.945254;3.008074
6.850;1.948393;3.023919
6.860;1.946410;3.036124
6.870;1.940195;3.044923
6.880;1.931037;3.050743
6.890;1.920276;3.054080
6.900;1.908965;3.055432
6.910;1.897664;3.055307
6.920;1.886438;3.054249
6.930;1.875031;3.052807
6.940;1.863136;3.051484
6.950;1.850663;3.050655
6.960;1.837889;3.050527
6.970;1.825477;3.051127
6.980;1.814347;3.052308
6.990;1.805499;3.053760
7.000;1.799830;3.055034
7.010;1.797998;3.055622
7.020;1.800318;3.055115
7.030;1.806755;3.053392
7.040;1.816986;3.050722
7.050;1.830535;3.047716
7.060;1.846900;3.045141
7.070;1.865634;3.043721
7.080;1.886365;3.044017
7.090;1.908797;3.046378
7.100;1.932682;3.050936
7.110;1.957775;3.057593
7.120;1.983770;3.066027
7.130;2.010252;3.075772
7.140;2.036666;3.086313
7.150;2.062324;3.097163
7.160;2.086445;3.107879
7.170;2.108245;3.118008
7.180;2.127034;3.127059
7.190;2.142311;3.134543
7.200;2.153808;3.140112
7.210;2.161506;3.143742
7.220;2.165644;3.145818
7.230;2.166704;3.147046
7.240;2.165356;3.148150
7.250;2.162344;3.149496
7.260;2.158315;3.150830
7.270;2.153662;3.151282
7.280;2.148413;3.149643
7.290;2.142256;3.144802
7.300;2.134697;3.136157
7.310;2.125323;3.123838
7.320;2.114024;3.108659
7.330;2.101079;3.091826
7.340;2.087047;3.074540
7.350;2.072570;3.057657
7.360;2.058183;3.041539
7.370;2.044215;3.026128
7.380;2.030768;3.011170
7.390;2.017734;2.996409
7.400;2.004828;2.981659
7.410;1.991640;2.966715
7.420;1.977699;2.951214
7.430;1.962548;2.934584
7.440;1.945783;2.916115
7.450;1.927036;2.895148
7.460;1.905858;2.871243
7.470;1.881542;2.844269
7.480;1.853024;2.814390
7.490;1.818958;2.781947
7.500;1.778033;2.747316
7.510;1.729430;2.710833
7.520;1.673257;2.672833
7.530;1.610785;2.633762
7.540;1.544370;2.594272
7.550;1.477028;2.555203
7.560;1.411777;2.517477
7.570;1.350960;2.481962
7.580;1.295802;2.449420
7.590;1.246354;2.420502
7.600;1.201799;2.395728
7.610;1.160948;2.375364
7.620;1.122680;2.359246
7.630;1.086171;2.346639
7.640;1.050864;2.336239
7.650;1.016259;2.326334
7.660;0.981667;2.315071
7.670;0.946095;2.300732
7.680;0.908348;2.281960
7.690;0.867309;2.257890
7.700;0.822265;2.228230
7.710;0.773098;2.193277
7.720;0.720234;2.153847
7.730;0.664392;2.111123
7.740;0.606252;2.066428
7.750;0.546199;2.020977
7.760;0.484275;1.975692
7.770;0.420365;1.931161
7.780;0.354556;1.887749
7.790;0.287493;1.845843
7.800;0.220548;1.806064
7.810;0.155702;1.769337
7.820;0.095178;1.736725
7.830;0.040987;1.709086
7.840;-0.005450;1.686707
7.850;-0.043496;1.669092
7.860;-0.073267;1.655047
7.870;-0.095466;1.643046
7.880;-0.111137;1.631717
7.890;-0.121410;1.620230
7.900;-0.127279;1.608421
7.910;-0.129463;1.596610
7.920;-0.128403;1.585245
7.930;-0.124394;1.574581
7.940;-0.117802;1.564546
7.950;-0.109276;1.554839
7.960;-0.099835;1.545138
7.970;-0.090806;1.535287
7.980;-0.083621;1.525344
7.990;-0.079595;1.515506
8.000;-0.079766;1.505948
8.010;-0.084858;1.496673
8.020;-0.095333;1.487418
8.030;-0.111490;1.477676
8.040;-0.133534;1.466866
8.050;-0.161564;1.454599
8.060;-0.195427;1.440920
8.070;-0.234507;1.426407
8.080;-0.277567;1.412071
8.090;-0.322779;1.399089
8.100;-0.367993;1.388468
8.110;-0.411158;1.380770
8.120;-0.450733;1.375950
8.130;-0.485953;1.373381
8.140;-0.516862;1.372058
8.150;-0.544158;1.370941
8.160;-0.568913;1.369332
8.170;-0.592285;1.367143
8.180;-0.615262;1.364946
8.190;-0.638484;1.363754
8.200;-0.662148;1.364616
8.210;-0.686012;1.368181
8.220;-0.709524;1.374408
8.230;-0.732086;1.382519
8.240;-0.753379;1.391175
8.250;-0.773650;1.398810
8.260;-0.793833;1.403984
