Time[s];COPx[cm];COPy[cm]
0.010;0.457569;-1.304224
0.020;0.480696;-1.297864
0.030;0.501485;-1.292688
0.040;0.518181;-1.289658
0.050;0.529958;-1.289355
0.060;0.537051;-1.291703
0.070;0.540560;-1.295831
0.080;0.541968;-1.300233
0.090;0.542527;-1.303240
0.100;0.542730;-1.303615
0.110;0.542115;-1.300974
0.120;0.539492;-1.295844
0.130;0.533522;-1.289350
0.140;0.523391;-1.282696
0.150;0.509284;-1.276666
0.160;0.492488;-1.271333
0.170;0.475059;-1.266102
0.180;0.459211;-1.260058
0.190;0.446670;-1.252490
0.200;0.438214;-1.243291
0.210;0.433582;-1.233008
0.220;0.431721;-1.222466
0.230;0.431302;-1.212156
0.240;0.431303;-1.201772
0.250;0.431478;-1.190199
0.260;0.432549;-1.176042
0.270;0.436061;-1.158447
0.280;0.443925;-1.137788
0.290;0.457784;-1.115826
0.300;0.478351;-1.095218
0.310;0.504956;-1.078536
0.320;0.535464;-1.067201
0.330;0.566647;-1.060775
0.340;0.594900;-1.056904
0.350;0.617081;-1.051940
0.360;0.631229;-1.042054
0.370;0.636951;-1.024477
0.380;0.635380;-0.998485
0.390;0.628712;-0.965750
0.400;0.619464;-0.929880
0.410;0.609686;-0.895244
0.420;0.600410;-0.865512
0.430;0.591475;-0.842504
0.440;0.581752;-0.825806
0.450;0.569635;-0.813289
0.460;0.553612;-0.802258
0.470;0.532730;-0.790739
0.480;0.506837;-0.778345
0.490;0.476548;-0.766400
0.500;0.442986;-0.757277
0.510;0.407423;-0.753308
0.520;0.370975;-0.755742
0.530;0.334448;-0.764207
0.540;0.298340;-0.776842
0.550;0.262931;-0.790987
0.560;0.228386;-0.804090
0.570;0.194812;-0.814457
0.580;0.162294;-0.821579
0.590;0.130916;-0.825973
0.600;0.100850;-0.828652
0.610;0.072488;-0.830530
0.620;0.046567;-0.832025
0.630;0.024179;-0.833018
0.640;0.006601;-0.833130
0.650;-0.005032;-0.832102
0.660;-0.010099;-0.830065
0.670;-0.008737;-0.827540
0.680;-0.001842;-0.825225
0.690;0.009251;-0.823708
0.700;0.023307;-0.823313
0.710;0.039784;-0.824147
0.720;0.059184;-0.826275
0.730;0.082984;-0.829883
0.740;0.113142;-0.835291
0.750;0.151350;-0.842755
0.760;0.198320;-0.852142
0.770;0.253347;-0.862627
0.780;0.314286;-0.872610
0.790;0.377952;-0.879969
0.800;0.440834;-0.882598
0.810;0.499871;-0.879076
0.820;0.553062;-0.869228
0.830;0.599713;-0.854354
0.840;0.640283;-0.837014
0.850;0.675934;-0.820359
0.860;0.707994;-0.807178
0.870;0.737549;-0.798996
0.880;0.765266;-0.795564
0.890;0.791408;-0.795033
0.900;0.815931;-0.794735
0.910;0.838531;-0.792254
0.920;0.858657;-0.786327
0.930;0.875585;-0.777213
0.940;0.888643;-0.766458
0.950;0.897565;-0.756226
0.960;0.902778;-0.748508
0.970;0.905406;-0.744523
0.980;0.906933;-0.744496
0.990;0.908643;-0.747824
1.000;0.911170;-0.753485
1.010;0.914391;-0.760477
1.020;0.917744;-0.768099
1.030;0.920807;-0.776009
1.040;0.923837;-0.784075
1.050;0.928028;-0.792181
1.060;0.935332;-0.800127
1.070;0.947920;-0.807728
1.080;0.967460;-0.815068
1.090;0.994502;-0.822730
1.100;1.028183;-0.831792
1.110;1.066304;-0.843512
1.120;1.105766;-0.858778
1.130;1.143186;-0.877613
1.140;1.175543;-0.898957
1.150;1.200716;-0.920884
1.160;1.217820;-0.941151
1.170;1.227292;-0.957893
1.180;1.230710;-0.970175
1.190;1.230314;-0.978208
1.200;1.228326;-0.983157
1.210;1.226229;-0.986628
1.220;1.224294;-0.990044
1.230;1.221564;-0.994149
1.240;1.216309;-0.998824
1.250;1.206758;-1.003267
1.260;1.191830;-1.006528
1.270;1.171609;-1.008173
1.280;1.147417;-1.008783
1.290;1.121462;-1.009978
1.300;1.096155;-1.013865
1.310;1.073334;-1.022153
1.320;1.053682;-1.035369
1.330;1.036577;-1.052588
1.340;1.020441;-1.071820
1.350;1.003441;-1.090919
1.360;0.984239;-1.108603
1.370;0.962491;-1.125175
1.380;0.938915;-1.142558
1.390;0.914934;-1.163578
1.400;0.892078;-1.190739
1.410;0.871406;-1.225014
1.420;0.853202;-1.265191
1.430;0.837030;-1.308082
1.440;0.822108;-1.349481
1.450;0.807802;-1.385491
1.460;0.793987;-1.413713
1.470;0.781096;-1.433886
1.480;0.769825;-1.447770
1.490;0.760661;-1.458335
1.500;0.753457;-1.468583
1.510;0.747291;-1.480455
1.520;0.740665;-1.494229
1.530;0.731985;-1.508582
1.540;0.720111;-1.521241
1.550;0.704787;-1.529949
1.560;0.686768;-1.533353
1.570;0.667609;-1.531475
1.580;0.649164;-1.525614
1.590;0.632980;-1.517767
1.600;0.619829;-1.509868
1.610;0.609587;-1.503212
1.620;0.601540;-1.498289
1.630;0.594979;-1.495054
1.640;0.589794;-1.493395
1.650;0.586762;-1.493499
1.660;0.587366;-1.495897
1.670;0.593142;-1.501216
1.680;0.604813;-1.509778
1.690;0.621583;-1.521301
1.700;0.640927;-1.534838
1.710;0.659050;-1.548969
1.720;0.671851;-1.562163
1.730;0.676070;-1.573173
1.740;0.670233;-1.581341
1.750;0.655097;-1.586763
1.760;0.633443;-1.590280
1.770;0.609235;-1.593286
1.780;0.586368;-1.597362
1.790;0.567383;-1.603865
1.800;0.552593;-1.613630
1.810;0.539956;-1.626920
1.820;0.525790;-1.643589
1.830;0.506104;-1.663278
1.840;0.478094;-1.685472
1.850;0.441268;-1.709382
1.860;0.397768;-1.733760
1.870;0.351731;-1.756832
1.880;0.307885;-1.776452
1.890;0.269910;-1.790488
1.900;0.239250;-1.797318
1.910;0.214830;-1.796261
1.920;0.193749;-1.787767
1.930;0.172559;-1.773306
1.940;0.148560;-1.754991
1.950;0.120622;-1.735087
1.960;0.089318;-1.715590
1.970;0.056411;-1.698020
1.980;0.023946;-1.683489
1.990;-0.006661;-1.672902
2.000;-0.035181;-1.667102
2.010;-0.062551;-1.666784
2.020;-0.090339;-1.672121
2.030;-0.119998;-1.682314
2.040;-0.152231;-1.695344
2.050;-0.186753;-1.708150
2.060;-0.222430;-1.717254
2.070;-0.257680;-1.719616
2.080;-0.290882;-1.713380
2.090;-0.320683;-1.698197
2.100;-0.346169;-1.674997
2.110;-0.366964;-1.645347
2.120;-0.383261;-1.610729
2.130;-0.395767;-1.572086
2.140;-0.405519;-1.529807
2.150;-0.413603;-1.484099
2.160;-0.420847;-1.435513
2.170;-0.427607;-1.385342
2.180;-0.433744;-1.335667
2.190;-0.438803;-1.288990
2.200;-0.442299;-1.247542
2.210;-0.444011;-1.212484
2.220;-0.444121;-1.183311
2.230;-0.443135;-1.157674
2.240;-0.441604;-1.131710
2.250;-0.439792;-1.100821
2.260;-0.437484;-1.060707
2.270;-0.434082;-1.008378
2.280;-0.428982;-0.942817
2.290;-0.422070;-0.865063
2.300;-0.414097;-0.777671
2.310;-0.406737;-0.683793
2.320;-0.402266;-0.586246
2.330;-0.402975;-0.486937
2.340;-0.410506;-0.386789
2.350;-0.425319;-0.286045
2.360;-0.446440;-0.184766
2.370;-0.471592;-0.083283
2.380;-0.497717;0.017517
2.390;-0.521811;0.116177
2.400;-0.541792;0.210952
2.410;-0.557101;0.300286
2.420;-0.568818;0.383287
2.430;-0.579277;0.459978
2.440;-0.591369;0.531222
2.450;-0.607778;0.598373
2.460;-0.630302;0.662820
2.470;-0.659354;0.725607
2.480;-0.693660;0.787224
2.490;-0.730253;0.847588
2.500;-0.764875;0.906199
2.510;-0.792810;0.962457
2.520;-0.809986;1.016069
2.530;-0.814016;1.067396
2.540;-0.804807;1.117569
2.550;-0.784492;1.168231
2.560;-0.756744;1.220946
2.570;-0.725784;1.276502
2.580;-0.695476;1.334419
2.590;-0.668748;1.392887
2.600;-0.647368;1.449185
2.610;-0.631960;1.500358
2.620;-0.622176;1.543891
2.630;-0.616992;1.578151
2.640;-0.615116;1.602510
2.650;-0.615407;1.617170
2.660;-0.617194;1.622829
2.670;-0.620387;1.620313
2.680;-0.625388;1.610275
2.690;-0.632891;1.593054
2.700;-0.643686;1.568698
2.710;-0.658526;1.537149
2.720;-0.678009;1.498576
2.730;-0.702390;1.453714
2.740;-0.731241;1.404079
2.750;-0.763063;1.351898
2.760;-0.795055;1.299734
2.770;-0.823323;1.249904
2.780;-0.843639;1.203909
2.790;-0.852593;1.162103
2.800;-0.848705;1.123765
2.810;-0.833006;1.087598
2.820;-0.808782;1.052486
2.830;-0.780526;1.018194
2.840;-0.752481;0.985649
2.850;-0.727304;0.956652
2.860;-0.705323;0.933096
2.870;-0.684633;0.916082
2.880;-0.661981;0.905369
2.890;-0.634107;0.899452
2.900;-0.599043;0.896212
2.910;-0.556873;0.893750
2.920;-0.509664;0.890973
2.930;-0.460589;0.887681
2.940;-0.412611;0.884241
2.950;-0.367233;0.881113
2.960;-0.323824;0.878468
2.970;-0.279801;0.876050
2.980;-0.231630;0.873288
2.990;-0.176279;0.869577
3.000;-0.112540;0.864578
3.010;-0.041697;0.858364
3.020;0.032719;0.851397
3.030;0.105971;0.844377
3.040;0.173528;0.838078
3.050;0.232378;0.833217
3.060;0.281787;0.830334
3.070;0.323323;0.829717
3.080;0.360189;0.831376
3.090;0.396105;0.835113
3.100;0.434132;0.840686
3.110;0.475800;0.848033
3.120;0.520799;0.857468
3.130;0.567295;0.869707
3.140;0.612672;0.885618
3.150;0.654408;0.905753
3.160;0.690784;0.929800
3.170;0.721285;0.956228
3.180;0.746633;0.982302
3.190;0.768522;1.004567
3.200;0.789141;1.019678
3.210;0.810556;1.025342
3.220;0.834082;1.021020
3.230;0.859778;1.008130
3.240;0.886236;0.989626
3.250;0.910783;0.969074
3.260;0.930118;0.949570
3.270;0.941226;0.932894
3.280;0.942268;0.919162
3.290;0.933120;0.907033
3.300;0.915389;0.894315
3.310;0.891878;0.878734
3.320;0.865691;0.858629
3.330;0.839249;0.833363
3.340;0.813566;0.803351
3.350;0.788040;0.769738
3.360;0.760875;0.733895
3.370;0.729978;0.696925
3.380;0.693997;0.659345
3.390;0.653097;0.620976
3.400;0.609196;0.581071
3.410;0.565541;0.538590
3.420;0.525756;0.492570
3.430;0.492687;0.442470
3.440;0.467481;0.388394
3.450;0.449238;0.331157
3.460;0.435352;0.272188
3.470;0.422345;0.213330
3.480;0.406872;0.156581
3.490;0.386550;0.103823
3.500;0.360423;0.056548
3.510;0.328973;0.015623
3.520;0.293768;-0.018862
3.530;0.256886;-0.047563
3.540;0.220316;-0.071662
3.550;0.185493;-0.092499
3.560;0.153061;-0.111178
3.570;0.122919;-0.128266
3.580;0.094498;-0.143664
3.590;0.067182;-0.156692
3.600;0.040688;-0.166359
3.610;0.015256;-0.171755
3.620;-0.008430;-0.172435
3.630;-0.029552;-0.168640
3.640;-0.047558;-0.161261
3.650;-0.062523;-0.151560
3.660;-0.075314;-0.140784
3.670;-0.087504;-0.129860
3.680;-0.101006;-0.119320
3.690;-0.117502;-0.109486
3.700;-0.137811;-0.100779
3.710;-0.161392;-0.093942
3.720;-0.186184;-0.090001
3.730;-0.208923;-0.089939
3.740;-0.225948;-0.094215
3.750;-0.234301;-0.102378
3.760;-0.232706;-0.113010
3.770;-0.222043;-0.124079
3.780;-0.205113;-0.133583
3.790;-0.185823;-0.140198
3.800;-0.168095;-0.143649
3.810;-0.154845;-0.144678
3.820;-0.147293;-0.144687
3.830;-0.144766;-0.145276
3.840;-0.145018;-0.147873
3.850;-0.145006;-0.153553
3.860;-0.141876;-0.163003
3.870;-0.133865;-0.176512
3.880;-0.120811;-0.193865
3.890;-0.104140;-0.214188
3.900;-0.086360;-0.235909
3.910;-0.070261;-0.256989
3.920;-0.058090;-0.275478
3.930;-0.050951;-0.290207
3.940;-0.048611;-0.301307
3.950;-0.049764;-0.310232
3.960;-0.052655;-0.319154
3.970;-0.055822;-0.329919
3.980;-0.058668;-0.343039
3.990;-0.061634;-0.357246
4.000;-0.065933;-0.369865
4.010;-0.073012;-0.377881
4.020;-0.083975;-0.379207
4.030;-0.099198;-0.373609
4.040;-0.118251;-0.362872
4.050;-0.140124;-0.350109
4.060;-0.163628;-0.338526
4.070;-0.187742;-0.330156
4.080;-0.211730;-0.325117
4.090;-0.234967;-0.321656
4.100;-0.256622;-0.316909
4.110;-0.275420;-0.308036
4.120;-0.289682;-0.293260
4.130;-0.297681;-0.272453
4.140;-0.298181;-0.247055
4.150;-0.290889;-0.219441
4.160;-0.276607;-0.192044
4.170;-0.257001;-0.166607
4.180;-0.234074;-0.143829
4.190;-0.209516;-0.123424
4.200;-0.184143;-0.104413
4.210;-0.157579;-0.085467
4.220;-0.128325;-0.065155
4.230;-0.094253;-0.042127
4.240;-0.053395;-0.015243
4.250;-0.004778;0.016297
4.260;0.051028;0.052853
4.270;0.111859;0.094283
4.280;0.174422;0.139905
4.290;0.235116;0.188495
4.300;0.290930;0.238354
4.310;0.340176;0.287467
4.320;0.382872;0.333742
4.330;0.420669;0.375293
4.340;0.456349;0.410692
4.350;0.492985;0.439175
4.360;0.532997;0.460728
4.370;0.577370;0.476011
4.380;0.625286;0.486139
4.390;0.674299;0.492396
4.400;0.721041;0.496008
4.410;0.762231;0.498007
4.420;0.795673;0.499143
4.430;0.820917;0.499797
4.440;0.839363;0.499860
4.450;0.853723;0.498642
4.460;0.867006;0.494904
4.470;0.881392;0.487104
4.480;0.897425;0.473834
4.490;0.913842;0.454299
4.500;0.928096;0.428625
4.510;0.937304;0.397827
4.520;0.939254;0.363435
4.530;0.933106;0.326869
4.540;0.919544;0.288790
4.550;0.900378;0.248644
4.560;0.877733;0.204658
4.570;0.853158;0.154387
4.580;0.826994;0.095706
4.590;0.798239;0.027894
4.600;0.764956;-0.047654
4.610;0.725059;-0.127449
4.620;0.677159;-0.206738
4.630;0.621164;-0.280848
4.640;0.558428;-0.346509
4.650;0.491439;-0.402605
4.660;0.423200;-0.450087
4.670;0.356542;-0.491196
4.680;0.293604;-0.528433
4.690;0.235602;-0.563747
4.700;0.182899;-0.598163
4.710;0.135295;-0.631841
4.720;0.092415;-0.664379
4.730;0.054060;-0.695156
4.740;0.020404;-0.723576
4.750;-0.008013;-0.749153
4.760;-0.030481;-0.771492
4.770;-0.046404;-0.790267
4.780;-0.055551;-0.805323
4.790;-0.058199;-0.816909
4.800;-0.055135;-0.825931
4.810;-0.047567;-0.834033
4.820;-0.036973;-0.843315
4.830;-0.024884;-0.855650
4.840;-0.012651;-0.871840
4.850;-0.001242;-0.890999
4.860;0.008819;-0.910574
4.870;0.017359;-0.927107
4.880;0.024349;-0.937486
4.890;0.029691;-0.940147
4.900;0.033103;-0.935724
4.910;0.034166;-0.926875
4.920;0.032511;-0.917410
4.930;0.028112;-0.911079
4.940;0.021544;-0.910459
4.950;0.014103;-0.916311
4.960;0.007689;-0.927574
4.970;0.004419;-0.941964
4.980;0.006076;-0.956901
4.990;0.013560;-0.970412
5.000;0.026571;-0.981654
5.010;0.043677;-0.990924
5.020;0.062740;-0.999233
5.030;0.081547;-1.007677
5.040;0.098416;-1.016854
5.050;0.112577;-1.026536
5.060;0.124216;-1.035715
5.070;0.134203;-1.042944
5.080;0.143617;-1.046843
5.090;0.153252;-1.046548
5.100;0.163319;-1.041957
5.110;0.173465;-1.033731
5.120;0.183088;-1.023072
5.130;0.191777;-1.011361
5.140;0.199599;-0.999768
5.150;0.207093;-0.988957
5.160;0.214984;-0.978945
5.170;0.223814;-0.969159
5.180;0.233678;-0.958615
5.190;0.244203;-0.946193
5.200;0.254713;-0.930962
5.210;0.264520;-0.912512
5.220;0.273216;-0.891194
5.230;0.280911;-0.868162
5.240;0.288326;-0.845164
5.250;0.296694;-0.824080
5.260;0.307449;-0.806338
5.270;0.321801;-0.792387
5.280;0.340338;-0.781442
5.290;0.362816;-0.771637
5.300;0.388196;-0.760592
5.310;0.414875;-0.746232
5.320;0.441014;-0.727560
5.330;0.464845;-0.705057
5.340;0.484914;-0.680535
5.350;0.500259;-0.656480
5.360;0.510541;-0.635158
5.370;0.516140;-0.617880
5.380;0.518166;-0.604717
5.390;0.518325;-0.594769
5.400;0.518570;-0.586786
5.410;0.520598;-0.579815
5.420;0.525360;-0.573532
5.430;0.532804;-0.568167
5.440;0.542004;-0.564120
5.450;0.551634;-0.561526
5.460;0.560582;-0.560048
5.470;0.568420;-0.559013
5.480;0.575524;-0.557840
5.490;0.582812;-0.556468
5.500;0.591243;-0.555496
5.510;0.601316;-0.555859
5.520;0.612771;-0.558200
5.530;0.624599;-0.562315
5.540;0.635348;-0.567069
5.550;0.643607;-0.570937
5.560;0.648532;-0.572941
5.570;0.650221;-0.573531
5.580;0.649822;-0.574896
5.590;0.649300;-0.580413
5.600;0.650953;-0.593382
5.610;0.656838;-0.615589
5.620;0.668317;-0.646356
5.630;0.685844;-0.682603
5.640;0.708991;-0.719917
5.650;0.736622;-0.754214
5.660;0.767092;-0.783297
5.670;0.798402;-0.807685
5.680;0.828337;-0.830389
5.690;0.854676;-0.855703
5.700;0.875536;-0.887468
5.710;0.889833;-0.927465
5.720;0.897746;-0.974593
5.730;0.900937;-1.025137
5.740;0.902345;-1.074005
5.750;0.905471;-1.116390
5.760;0.913350;-1.149190
5.770;0.927584;-1.171663
5.780;0.947831;-1.185155
5.790;0.971969;-1.192139
5.800;0.996850;-1.195021
5.810;1.019342;-1.195183
5.820;1.037307;-1.192584
5.830;1.050187;-1.185967
5.840;1.059059;-1.173540
5.850;1.066161;-1.153820
5.860;1.074063;-1.126280
5.870;1.084758;-1.091558
5.880;1.098978;-1.051189
5.890;1.115965;-1.007045
5.900;1.133782;-0.960774
5.910;1.150029;-0.913485
5.920;1.162699;-0.865781
5.930;1.170808;-0.818069
5.940;1.174613;-0.770949
5.950;1.175348;-0.725483
5.960;1.174658;-0.683191
5.970;1.173965;-0.645726
5.980;1.174028;-0.614364
5.990;1.174849;-0.589492
6.000;1.175950;-0.570319
6.010;1.176861;-0.554941
6.020;1.177601;-0.540758
6.030;1.178897;-0.525128
6.040;1.182039;-0.506074
6.050;1.188395;-0.482835
6.060;1.198797;-0.456111
6.070;1.213083;-0.427911
6.080;1.230027;-0.401028
6.090;1.247712;-0.378271
6.100;1.264157;-0.361667
6.110;1.277924;-0.351913
6.120;1.288463;-0.348260
6.130;1.296128;-0.348853
6.140;1.301959;-0.351371
6.150;1.307363;-0.353698
6.160;1.313782;-0.354400
6.170;1.322398;-0.352871
6.180;1.333856;-0.349166
6.190;1.348098;-0.343673
6.200;1.364339;-0.336811
6.210;1.381238;-0.328851
6.220;1.397221;-0.319886
6.230;1.410857;-0.309888
6.240;1.421187;-0.298802
6.250;1.427912;-0.286624
6.260;1.431412;-0.273448
6.270;1.432565;-0.259468
6.280;1.432428;-0.244953
6.290;1.431851;-0.230157
6.300;1.431151;-0.215193
6.310;1.429941;-0.199901
6.320;1.427184;-0.183791
6.330;1.421441;-0.166106
6.340;1.411222;-0.145985
6.350;1.395354;-0.122625
6.360;1.373292;-0.095385
6.370;1.345298;-0.063790
6.380;1.312442;-0.027483
6.390;1.276377;0.013798
6.400;1.238929;0.060151
6.410;1.201613;0.111302
6.420;1.165219;0.166351
6.430;1.129566;0.223666
6.440;1.093471;0.281093
6.450;1.054873;0.336524
6.460;1.011069;0.388610
6.470;0.959079;0.437301
6.480;0.896169;0.483908
6.490;0.820575;0.530570
6.500;0.732369;0.579263
6.510;0.634263;0.630691
6.520;0.532002;0.683513
6.530;0.433935;0.734308
6.540;0.349537;0.778448
6.550;0.287109;0.811647
6.560;0.251431;0.831593
6.570;0.242351;0.838914
6.580;0.254985;0.837027
6.590;0.281446;0.830969
6.600;0.313332;0.825767
6.610;0.344020;0.825013
6.620;0.370038;0.830088
6.630;0.391284;0.840151
6.640;0.410208;0.852813
6.650;0.430366;0.865205
6.660;0.454831;0.875023
6.670;0.484942;0.881196
6.680;0.519714;0.883929
6.690;0.556025;0.884214
6.700;0.589482;0.883099
6.710;0.615663;0.881053
6.720;0.631327;0.877642
6.730;0.635228;0.871540
6.740;0.628285;0.860765
6.750;0.613074;0.843093
6.760;0.592827;0.816568
6.770;0.570246;0.780070
6.780;0.546562;0.733774
6.790;0.521175;0.679334
6.800;0.492035;0.619678
6.810;0.456641;0.558406
6.820;0.413244;0.499014
6.830;0.361815;0.444194
6.840;0.304379;0.395425
6.850;0.244595;0.352976
6.860;0.186745;0.316261
6.870;0.134517;0.284432
6.880;0.090050;0.256990
6.890;0.053574;0.234152
6.900;0.023725;0.216775
6.910;-0.001691;0.205820
6.920;-0.024804;0.201606
6.930;-0.046960;0.203210
6.940;-0.068368;0.208369
6.950;-0.088142;0.213956
6.960;-0.104670;0.216903
6.970;-0.116172;0.215145
6.980;-0.121245;0.208158
6.990;-0.119194;0.196870
7.000;-0.110033;0.183021
7.010;-0.094135;0.168331
7.020;-0.071667;0.153886
7.030;-0.042015;0.139976
7.040;-0.003446;0.126389
7.050;0.046787;0.112902
7.060;0.111779;0.099664
7.070;0.193871;0.087252
7.080;0.293431;0.076404
7.090;0.408021;0.067629
7.100;0.532361;0.060938
7.110;0.659176;0.055815
7.120;0.780629;0.051383
7.130;0.889844;0.046639
7.140;0.982059;0.040642
7.150;1.055169;0.032569
7.160;1.109657;0.021670
7.170;1.148047;0.007201
7.180;1.174064;-0.011538
7.190;1.191692;-0.034980
7.200;1.204312;-0.062982
7.210;1.214076;-0.094598
7.220;1.221657;-0.128100
7.230;1.226440;-0.161288
7.240;1.227072;-0.191988
7.250;1.222166;-0.218602
7.260;1.210884;-0.240552
7.270;1.193200;-0.258440
7.280;1.169799;-0.273833
7.290;1.141783;-0.288686
7.300;1.110397;-0.304628
7.310;1.076920;-0.322387
7.320;1.042700;-0.341619
7.330;1.009185;-0.361188
7.340;0.977802;-0.379747
7.350;0.949671;-0.396323
7.360;0.925276;-0.410641
7.370;0.904302;-0.423038
7.380;0.885819;-0.434042
7.390;0.868793;-0.443854
7.400;0.852708;-0.451998
7.410;0.838017;-0.457357
7.420;0.826154;-0.458600
7.430;0.819097;-0.454844
7.440;0.818627;-0.446232
7.450;0.825601;-0.434119
7.460;0.839478;-0.420765
7.470;0.858274;-0.408645
7.480;0.878952;-0.399695
7.490;0.898143;-0.394780
7.500;0.913010;-0.393586
7.510;0.921973;-0.394890
7.520;0.925063;-0.397108
7.530;0.923757;-0.398915
7.540;0.920328;-0.399735
7.550;0.916963;-0.399901
7.560;0.914970;-0.400397
7.570;0.914395;-0.402305
7.580;0.914153;-0.406210
7.590;0.912580;-0.411842
7.600;0.908135;-0.418103
7.610;0.899973;-0.423454
7.620;0.888200;-0.426501
7.630;0.873765;-0.426551
7.640;0.858049;-0.423919
7.650;0.842340;-0.419871
7.660;0.827379;-0.416214
7.670;0.813160;-0.414683
7.680;0.798994;-0.416328
7.690;0.783785;-0.421078
7.700;0.766355;-0.427665
7.710;0.745759;-0.433948
7.720;0.721534;-0.437597
7.730;0.693875;-0.436903
7.740;0.663667;-0.431473
7.750;0.632333;-0.422547
7.760;0.601469;-0.412809
7.770;0.572374;-0.405679
7.780;0.545626;-0.404328
7.790;0.520884;-0.410748
7.800;0.497022;-0.425229
7.810;0.472588;-0.446385
7.820;0.446508;-0.471654
7.830;0.418856;-0.498011
7.840;0.391420;-0.522657
7.850;0.367794;-0.543482
7.860;0.352795;-0.559234
7.870;0.351245;-0.569453
7.880;0.366492;-0.574283
7.890;0.399203;-0.574324
7.900;0.446942;-0.570577
7.910;0.504729;-0.564414
7.920;0.566322;-0.557469
7.930;0.625732;-0.551399
7.940;0.678420;-0.547581
7.950;0.721861;-0.546851
7.960;0.755411;-0.549354
7.970;0.779638;-0.554544
7.980;0.795467;-0.561339
7.990;0.803469;-0.568412
8.000;0.803551;-0.574545
