Time[s];COPx[cm];COPy[cm]
0.010;-6.165234;0.854881
0.020;-6.144400;0.844203
0.030;-6.123251;0.831888
0.040;-6.101737;0.816857
0.050;-6.080138;0.798962
0.060;-6.058999;0.778937
0.070;-6.038962;0.758016
0.080;-6.020625;0.737427
0.090;-6.004463;0.717993
0.100;-5.990792;0.699977
0.110;-5.979752;0.683198
0.120;-5.971270;0.667297
0.130;-5.965038;0.652020
0.140;-5.960511;0.637329
0.150;-5.956978;0.623311
0.160;-5.953698;0.609983
0.170;-5.950033;0.597154
0.180;-5.945535;0.584484
0.190;-5.939945;0.571680
0.200;-5.933139;0.558684
0.210;-5.925077;0.545752
0.220;-5.915786;0.533366
0.230;-5.905392;0.522024
0.240;-5.894137;0.512002
0.250;-5.882363;0.503190
0.260;-5.870439;0.495135
0.270;-5.858666;0.487296
0.280;-5.847228;0.479396
0.290;-5.836187;0.471658
0.300;-5.825524;0.464753
0.310;-5.815202;0.459486
0.320;-5.805238;0.456426
0.330;-5.795797;0.455681
0.340;-5.787254;0.456934
0.350;-5.780178;0.459641
0.360;-5.775193;0.463278
0.370;-5.772775;0.467510
0.380;-5.773053;0.472270
0.390;-5.775741;0.477763
0.400;-5.780202;0.484413
0.410;-5.785585;0.492730
0.420;-5.790972;0.503137
0.430;-5.795505;0.515797
0.440;-5.798517;0.530493
0.450;-5.799640;0.546617
0.460;-5.798841;0.563288
0.470;-5.796349;0.579571
0.480;-5.792525;0.594704
0.490;-5.787746;0.608270
0.500;-5.782345;0.620272
0.510;-5.776592;0.631110
0.520;-5.770686;0.641486
0.530;-5.764754;0.652251
0.540;-5.758864;0.664202
0.550;-5.753046;0.677882
0.560;-5.747325;0.693448
0.570;-5.741750;0.710660
0.580;-5.736426;0.729006
0.590;-5.731510;0.747878
0.600;-5.727191;0.766724
0.610;-5.723628;0.785133
0.620;-5.720903;0.802841
0.630;-5.719001;0.819703
0.640;-5.717820;0.835643
0.650;-5.717212;0.850658
0.660;-5.717027;0.864873
0.670;-5.717185;0.878622
0.680;-5.717748;0.892458
0.690;-5.718936;0.907053
0.700;-5.721073;0.923001
0.710;-5.724467;0.940604
0.720;-5.729299;0.959738
0.730;-5.735577;0.979875
0.740;-5.743151;1.000245
0.750;-5.751777;1.020081
0.760;-5.761197;1.038848
0.770;-5.771201;1.056383
0.780;-5.781662;1.072883
0.790;-5.792529;1.088748
0.800;-5.803823;1.104342
0.810;-5.815646;1.119790
0.820;-5.828199;1.134900
0.830;-5.841732;1.149254
0.840;-5.856417;1.162433
0.850;-5.872208;1.174245
0.860;-5.888778;1.184849
0.870;-5.905571;1.194686
0.880;-5.921912;1.204264
0.890;-5.937134;1.213900
0.900;-5.950674;1.223587
0.910;-5.962159;1.233038
0.920;-5.971449;1.241885
0.930;-5.978698;1.249914
0.940;-5.984377;1.257203
0.950;-5.989237;1.264060
0.960;-5.994156;1.270826
0.970;-5.999863;1.277664
0.980;-6.006674;1.284492
0.990;-6.014335;1.291089
1.000;-6.022086;1.297295
1.010;-6.028918;1.303161
1.020;-6.033887;1.308928
1.030;-6.036341;1.314856
1.040;-6.035995;1.320982
1.050;-6.032909;1.326987
1.060;-6.027477;1.332252
1.070;-6.020416;1.336083
1.080;-6.012739;1.337990
1.090;-6.005629;1.337875
1.100;-6.000240;1.336061
1.110;-5.997462;1.333151
1.120;-5.997729;1.329830
1.130;-6.000941;1.326664
1.140;-6.006523;1.323987
1.150;-6.013603;1.321851
1.160;-6.021255;1.320039
1.170;-6.028732;1.318147
1.180;-6.035601;1.315718
1.190;-6.041781;1.312399
1.200;-6.047499;1.308048
1.210;-6.053187;1.302727
1.220;-6.059349;1.296579
1.230;-6.066409;1.289673
1.240;-6.074579;1.281931
1.250;-6.083784;1.273180
1.260;-6.093657;1.263303
1.270;-6.103637;1.252346
1.280;-6.113124;1.240524
1.290;-6.121661;1.228148
1.300;-6.129028;1.215526
1.310;-6.135248;1.202935
1.320;-6.140512;1.190630
1.330;-6.145097;1.178851
1.340;-6.149293;1.167776
1.350;-6.153301;1.157440
1.360;-6.157120;1.147682
1.370;-6.160466;1.138159
1.380;-6.162824;1.128435
1.390;-6.163641;1.118091
1.400;-6.162561;1.106848
1.410;-6.159567;1.094614
1.420;-6.154941;1.081492
1.430;-6.149093;1.067729
1.440;-6.142382;1.053671
1.450;-6.135026;1.039733
1.460;-6.127121;1.026368
1.470;-6.118734;1.014023
1.480;-6.109952;1.003032
1.490;-6.100879;0.993493
1.500;-6.091592;0.985191
1.510;-6.082127;0.977678
1.520;-6.072513;0.970468
1.530;-6.062837;0.963261
1.540;-6.053327;0.956036
1.550;-6.044390;0.948993
1.560;-6.036574;0.942374
1.570;-6.030432;0.936324
1.580;-6.026316;0.930832
1.590;-6.024197;0.925794
1.600;-6.023625;0.921090
1.610;-6.023844;0.916639
1.620;-6.024031;0.912399
1.630;-6.023558;0.908354
1.640;-6.022160;0.904507
1.650;-6.019942;0.900896
1.660;-6.017225;0.897643
1.670;-6.014294;0.894954
1.680;-6.011213;0.893025
1.690;-6.007814;0.891908
1.700;-6.003849;0.891432
1.710;-5.999218;0.891268
1.720;-5.994095;0.891099
1.730;-5.988913;0.890785
1.740;-5.984228;0.890424
1.750;-5.980566;0.890292
1.760;-5.978333;0.890721
1.770;-5.977779;0.891949
1.780;-5.978982;0.894014
1.790;-5.981828;0.896685
1.800;-5.986006;0.899476
1.810;-5.991052;0.901785
1.820;-5.996416;0.903114
1.830;-6.001532;0.903294
1.840;-6.005864;0.902594
1.850;-6.008957;0.901650
1.860;-6.010504;0.901205
1.870;-6.010430;0.901796
1.880;-6.008939;0.903528
1.890;-6.006491;0.906066
1.900;-6.003659;0.908809
1.910;-6.000908;0.911134
1.920;-5.998393;0.912586
1.930;-5.995878;0.912957
1.940;-5.992828;0.912280
1.950;-5.988644;0.910788
1.960;-5.982936;0.908854
1.970;-5.975730;0.906916
1.980;-5.967482;0.905379
1.990;-5.958883;0.904531
2.000;-5.950539;0.904477
2.010;-5.942694;0.905134
2.020;-5.935162;0.906296
2.030;-5.927504;0.907749
2.040;-5.919346;0.909393
2.050;-5.910658;0.911264
2.060;-5.901818;0.913444
2.070;-5.893445;0.915924
2.080;-5.886136;0.918492
2.090;-5.880255;0.920754
2.100;-5.875868;0.922262
2.110;-5.872791;0.922716
2.120;-5.870686;0.922122
2.130;-5.869153;0.920839
2.140;-5.867814;0.919461
2.150;-5.866369;0.918598
2.160;-5.864657;0.918644
2.170;-5.862689;0.919619
2.180;-5.860611;0.921139
2.190;-5.858578;0.922531
2.200;-5.856579;0.923069
2.210;-5.854327;0.922272
2.220;-5.851287;0.920119
2.230;-5.846877;0.917090
2.240;-5.840760;0.913973
2.250;-5.833069;0.911532
2.260;-5.824442;0.910182
2.270;-5.815821;0.909813
2.280;-5.808098;0.909882
2.290;-5.801782;0.909732
2.300;-5.796832;0.908981
2.310;-5.792728;0.907750
2.320;-5.788743;0.906599
2.330;-5.784287;0.906228
2.340;-5.779166;0.907144
2.350;-5.773673;0.909479
2.360;-5.768470;0.913005
2.370;-5.764364;0.917262
2.380;-5.762049;0.921712
2.390;-5.761941;0.925878
2.400;-5.764120;0.929482
2.410;-5.768388;0.932556
2.420;-5.774404;0.935465
2.430;-5.781850;0.938772
2.440;-5.790555;0.942996
2.450;-5.800505;0.948366
2.460;-5.811725;0.954731
2.470;-5.824105;0.961651
2.480;-5.837298;0.968619
2.490;-5.850772;0.975323
2.500;-5.864005;0.981795
2.510;-5.876700;0.988395
2.520;-5.888923;0.995618
2.530;-5.901079;1.003843
2.540;-5.913744;1.013176
2.550;-5.927416;1.023446
2.560;-5.942273;1.034323
2.570;-5.958075;1.045465
2.580;-5.974222;1.056622
2.590;-5.989935;1.067668
2.600;-6.004460;1.078583
2.610;-6.017259;1.089414
2.620;-6.028164;1.100235
2.630;-6.037471;1.111146
2.640;-6.045917;1.122265
2.650;-6.054492;1.133715
2.660;-6.064134;1.145557
2.670;-6.075398;1.157699
2.680;-6.088255;1.169847
2.690;-6.102105;1.181542
2.700;-6.116011;1.192337
2.710;-6.129063;1.202009
2.720;-6.140731;1.210684
2.730;-6.151030;1.218779
2.740;-6.160452;1.226764
2.750;-6.169694;1.234901
2.760;-6.179346;1.243112
2.770;-6.189698;1.251051
2.780;-6.200753;1.258327
2.790;-6.212381;1.264728
2.800;-6.224502;1.270265
2.810;-6.237134;1.275011
2.820;-6.250311;1.278877
2.830;-6.263958;1.281512
2.840;-6.277831;1.282439
2.850;-6.291584;1.281317
2.860;-6.304902;1.278130
2.870;-6.317635;1.273169
2.880;-6.329873;1.266880
2.890;-6.341942;1.259715
2.900;-6.354309;1.252086
2.910;-6.367403;1.244358
2.920;-6.381406;1.236814
2.930;-6.396102;1.229583
2.940;-6.410872;1.222583
2.950;-6.424852;1.215513
2.960;-6.437194;1.207886
2.970;-6.447316;1.199116
2.980;-6.455072;1.188635
2.990;-6.460765;1.176036
3.000;-6.465008;1.161157
3.010;-6.468480;1.144053
3.020;-6.471675;1.124887
3.030;-6.474757;1.103820
3.040;-6.477582;1.080961
3.050;-6.479861;1.056369
3.060;-6.481384;1.030108
3.070;-6.482197;1.002330
3.080;-6.482602;0.973329
3.090;-6.482965;0.943511
3.100;-6.483413;0.913279
3.110;-6.483627;0.882899
3.120;-6.482887;0.852469
3.130;-6.480362;0.821993
3.140;-6.475487;0.791499
3.150;-6.468230;0.761116
3.160;-6.459120;0.731121
3.170;-6.449061;0.701972
3.180;-6.439030;0.674346
3.190;-6.429813;0.649114
3.200;-6.421856;0.627233
3.210;-6.415267;0.609571
3.220;-6.409910;0.596735
3.230;-6.405527;0.588986
3.240;-6.401785;0.586271
3.250;-6.398252;0.588312
3.260;-6.394353;0.594696
3.270;-6.389402;0.604899
3.280;-6.382768;0.618292
3.290;-6.374085;0.634149
3.300;-6.363401;0.651723
3.310;-6.351140;0.670370
3.320;-6.337885;0.689679
3.330;-6.324084;0.709561
3.340;-6.309778;0.730252
3.350;-6.294471;0.752218
3.360;-6.277201;0.775979
3.370;-6.256802;0.801883
3.380;-6.232280;0.829944
3.390;-6.203167;0.859788
3.400;-6.169724;0.890740
3.410;-6.132924;0.921974
3.420;-6.094224;0.952655
3.430;-6.055220;0.982075
3.440;-6.017319;1.009764
3.450;-5.981535;1.035584
3.460;-5.948466;1.059762
3.470;-5.918395;1.082815
3.480;-5.891447;1.105387
3.490;-5.867703;1.128085
3.500;-5.847199;1.151363
3.510;-5.829846;1.175465
3.520;-5.815313;1.200396
3.530;-5.802975;1.225872
3.540;-5.791988;1.251325
3.550;-5.781483;1.276010
3.560;-5.770815;1.299232
3.570;-5.759728;1.320579
3.580;-5.748375;1.340063
3.590;-5.737192;1.358105
3.600;-5.726699;1.375378
3.610;-5.717295;1.392592
3.620;-5.709124;1.410321
3.630;-5.702075;1.428949
3.640;-5.695931;1.448715
3.650;-5.690593;1.469762
3.660;-5.686226;1.492116
3.670;-5.683226;1.515625
3.680;-5.681968;1.539960
3.690;-5.682522;1.564763
3.700;-5.684505;1.589912
3.710;-5.687209;1.615763
3.720;-5.689918;1.643240
3.730;-5.692238;1.673669
3.740;-5.694275;1.708400
3.750;-5.696583;1.748361
3.760;-5.699949;1.793708
3.770;-5.705112;1.843724
3.780;-5.712488;1.896951
3.790;-5.722003;1.951522
3.800;-5.733116;2.005571
3.810;-5.745012;2.057581
3.820;-5.756931;2.106556
3.830;-5.768461;2.151934
3.840;-5.779701;2.193337
3.850;-5.791230;2.230326
3.860;-5.803894;2.262338
3.870;-5.818503;2.288845
3.880;-5.835553;2.309621
3.890;-5.855063;2.324949
3.900;-5.876570;2.335625
3.910;-5.899285;2.342730
3.920;-5.922329;2.347252
3.930;-5.944967;2.349723
3.940;-5.966763;2.350060
3.950;-5.987622;2.347701
3.960;-6.007717;2.342009
3.970;-6.027318;2.332725
3.980;-6.046567;2.320217
3.990;-6.065310;2.305393
4.000;-6.083041;2.289345
4.010;-6.099035;2.272949
4.020;-6.112567;2.256579
4.030;-6.123123;2.240019
4.040;-6.130487;2.222535
4.050;-6.134702;2.203045
4.060;-6.135962;2.180381
4.070;-6.134525;2.153637
4.080;-6.130707;2.122516
4.090;-6.124931;2.087533
4.100;-6.117766;2.049917
4.110;-6.109928;2.011206
4.120;-6.102203;1.972691
4.130;-6.095339;1.934989
4.140;-6.089903;1.897950
4.150;-6.086191;1.860915
4.160;-6.084221;1.823144
4.170;-6.083842;1.784200
4.180;-6.084863;1.744149
4.190;-6.087115;1.703559
4.200;-6.090401;1.663334
4.210;-6.094427;1.624422
4.220;-6.098812;1.587513
4.230;-6.103212;1.552835
4.240;-6.107488;1.520164
4.250;-6.111778;1.489012
4.260;-6.116431;1.458854
4.270;-6.121824;1.429281
4.280;-6.128181;1.400008
4.290;-6.135521;1.370803
4.300;-6.143774;1.341426
4.310;-6.152957;1.311630
4.320;-6.163287;1.281212
4.330;-6.175081;1.250063
4.340;-6.188494;1.218196
4.350;-6.203243;1.185740
4.360;-6.218520;1.152932
4.370;-6.233181;1.120116
4.380;-6.246116;1.087739
4.390;-6.256622;1.056307
4.400;-6.264559;1.026306
4.410;-6.270295;0.998092
4.420;-6.274510;0.971787
4.430;-6.277990;0.947233
4.440;-6.281473;0.923994
4.450;-6.285545;0.901447
4.460;-6.290585;0.878931
4.470;-6.296735;0.855925
4.480;-6.303893;0.832185
4.490;-6.311765;0.807790
4.500;-6.319972;0.783081
4.510;-6.328222;0.758513
4.520;-6.336450;0.734486
4.530;-6.344875;0.711226
4.540;-6.353910;0.688742
4.550;-6.363944;0.666888
4.560;-6.375105;0.645505
4.570;-6.387140;0.624603
4.580;-6.399476;0.604479
4.590;-6.411425;0.585685
4.600;-6.422409;0.568799
4.610;-6.432119;0.554115
4.620;-6.440561;0.541428
4.630;-6.448015;0.530057
4.640;-6.454922;0.519117
4.650;-6.461729;0.507895
4.660;-6.468726;0.496149
4.670;-6.475934;0.484163
4.680;-6.483106;0.472565
4.690;-6.489856;0.462012
4.700;-6.495879;0.452943
4.710;-6.501140;0.445515
4.720;-6.505910;0.439692
4.730;-6.510640;0.435372
4.740;-6.515726;0.432426
4.750;-6.521323;0.430669
4.760;-6.527292;0.429844
4.770;-6.533273;0.429683
4.780;-6.538838;0.430007
4.790;-6.543657;0.430754
4.800;-6.547609;0.431905
4.810;-6.550777;0.433347
4.820;-6.553366;0.434804
4.830;-6.555624;0.435869
4.840;-6.557852;0.436124
4.850;-6.560464;0.435254
4.860;-6.564005;0.433116
4.870;-6.569012;0.429766
4.880;-6.575786;0.425442
4.890;-6.584181;0.420519
4.900;-6.593556;0.415470
4.910;-6.602934;0.410859
4.920;-6.611315;0.407322
4.930;-6.618019;0.405464
4.940;-6.622913;0.405656
4.950;-6.626418;0.407843
4.960;-6.629271;0.411518
4.970;-6.632170;0.415876
4.980;-6.635446;0.420076
4.990;-6.638919;0.423461
5.000;-6.641989;0.425665
5.010;-6.643921;0.426588
5.020;-6.644191;0.426306
5.030;-6.642735;0.425005
5.040;-6.639986;0.422962
5.050;-6.636688;0.420545
5.060;-6.633568;0.418173
5.070;-6.631025;0.416252
5.080;-6.629029;0.415111
5.090;-6.627223;0.414981
5.100;-6.625135;0.415993
5.110;-6.622318;0.418188
5.120;-6.618389;0.421508
5.130;-6.613046;0.425806
5.140;-6.606153;0.430866
5.150;-6.597881;0.436456
5.160;-6.588770;0.442363
5.170;-6.579601;0.448410
5.180;-6.571075;0.454431
5.190;-6.563447;0.460262
5.200;-6.556307;0.465754
5.210;-6.548637;0.470845
5.220;-6.539167;0.475608
5.230;-6.526881;0.480244
5.240;-6.511475;0.484988
5.250;-6.493521;0.489980
5.260;-6.474250;0.495206
5.270;-6.455025;0.500542
5.280;-6.436777;0.505897
5.290;-6.419679;0.511347
5.300;-6.403175;0.517205
5.310;-6.386292;0.523978
5.320;-6.368023;0.532212
5.330;-6.347605;0.542259
5.340;-6.324617;0.554035
5.350;-6.298972;0.566905
5.360;-6.270894;0.579771
5.370;-6.240929;0.591401
5.380;-6.209934;0.600888
5.390;-6.178986;0.608038
5.400;-6.149185;0.613476
5.410;-6.121424;0.618366
5.420;-6.096235;0.623891
5.430;-6.073731;0.630757
5.440;-6.053678;0.638983
5.450;-6.035634;0.648031
5.460;-6.019110;0.657155
5.470;-6.003716;0.665762
5.480;-5.989252;0.673634
5.490;-5.975745;0.680948
5.500;-5.963404;0.688110
5.510;-5.952503;0.695527
5.520;-5.943217;0.703437
5.530;-5.935466;0.711893
5.540;-5.928857;0.720888
5.550;-5.922749;0.730520
5.560;-5.916434;0.741084
5.570;-5.909357;0.753048
5.580;-5.901290;0.766879
5.590;-5.892370;0.782813
5.600;-5.882998;0.800671
5.610;-5.873632;0.819818
5.620;-5.864582;0.839298
5.630;-5.855879;0.858078
5.640;-5.847267;0.875339
5.650;-5.838330;0.890709
5.660;-5.828674;0.904348
5.670;-5.818099;0.916845
5.680;-5.806680;0.928950
5.690;-5.794715;0.941288
5.700;-5.782577;0.954162
5.710;-5.770536;0.967524
5.720;-5.758638;0.981091
5.730;-5.746710;0.994537
5.740;-5.734477;1.007681
5.750;-5.721756;1.020554
5.760;-5.708613;1.033325
5.770;-5.695414;1.046118
5.780;-5.682723;1.058848
5.790;-5.671103;1.071203
5.800;-5.660958;1.082799
5.810;-5.652505;1.093408
5.820;-5.645913;1.103065
5.830;-5.641452;1.111997
5.840;-5.639535;1.120413
5.850;-5.640568;1.128337
5.860;-5.644735;1.135601
5.870;-5.651846;1.142006
5.880;-5.661370;1.147539
5.890;-5.672607;1.152513
5.900;-5.684916;1.157540
5.910;-5.697886;1.163347
5.920;-5.711414;1.170526
5.930;-5.725689;1.179318
5.940;-5.741115;1.189520
5.950;-5.758162;1.200542
5.960;-5.777184;1.211553
5.970;-5.798234;1.221677
5.980;-5.820983;1.230165
5.990;-5.844761;1.236539
6.000;-5.868743;1.240666
6.010;-5.892153;1.242746
6.020;-5.914416;1.243208
6.030;-5.935211;1.242550
6.040;-5.954457;1.241192
6.050;-5.972309;1.239366
6.060;-5.989173;1.237053
6.070;-6.005672;1.233979
6.080;-6.022483;1.229699
6.090;-6.040043;1.223802
6.100;-6.058218;1.216174
6.110;-6.076163;1.207186
6.120;-6.092497;1.197654
6.130;-6.105803;1.188577
6.140;-6.115230;1.180753
6.150;-6.120874;1.174495
6.160;-6.123742;1.169541
6.170;-6.125303;1.165181
6.180;-6.126881;1.160508
6.190;-6.129161;1.154686
6.200;-6.132009;1.147159
6.210;-6.134662;1.137745
6.220;-6.136117;1.126614
6.230;-6.135539;1.114192
6.240;-6.132493;1.101037
6.250;-6.126959;1.087724
6.260;-6.119194;1.074752
6.270;-6.109585;1.062486
6.280;-6.098550;1.051118
6.290;-6.086505;1.040661
6.300;-6.073874;1.030979
6.310;-6.061129;1.021843
6.320;-6.048853;1.012999
6.330;-6.037747;1.004208
6.340;-6.028544;0.995268
6.350;-6.021827;0.986028
6.360;-6.017837;0.976463
6.370;-6.016363;0.966769
6.380;-6.016796;0.957376
6.390;-6.018326;0.948841
6.400;-6.020199;0.941627
6.410;-6.021910;0.935893
6.420;-6.023267;0.931404
6.430;-6.024322;0.927571
6.440;-6.025269;0.923623
6.450;-6.026376;0.918830
6.460;-6.027988;0.912690
6.470;-6.030548;0.905031
6.480;-6.034565;0.896003
6.490;-6.040510;0.885982
6.500;-6.048657;0.875461
6.510;-6.058958;0.864972
6.520;-6.070971;0.855054
6.530;-6.083902;0.846187
6.540;-6.096759;0.838670
6.550;-6.108615;0.832475
6.560;-6.118872;0.827177
6.570;-6.127417;0.822055
6.580;-6.134571;0.816332
6.590;-6.140854;0.809451
6.600;-6.146666;0.801258
6.610;-6.152060;0.792027
6.620;-6.156698;0.782369
6.630;-6.160010;0.773071
6.640;-6.161470;0.764904
6.650;-6.160813;0.758445
6.660;-6.158091;0.753960
6.670;-6.153565;0.751376
6.680;-6.147515;0.750327
6.690;-6.140116;0.750232
6.700;-6.131425;0.750414
6.710;-6.121465;0.750242
6.720;-6.110331;0.749282
6.730;-6.098241;0.747399
6.740;-6.085497;0.744762
6.750;-6.072413;0.741735
6.760;-6.059245;0.738690
6.770;-6.046192;0.735840
6.780;-6.033427;0.733171
6.790;-6.021122;0.730516
6.800;-6.009455;0.727717
6.810;-5.998625;0.724793
6.820;-5.988886;0.722007
6.830;-5.980535;0.719817
6.840;-5.973807;0.718717
6.850;-5.968720;0.719076
6.860;-5.964963;0.721015
6.870;-5.961941;0.724350
6.880;-5.958921;0.728582
6.890;-5.955225;0.732964
6.900;-5.950369;0.736708
6.910;-5.944154;0.739273
6.920;-5.936697;0.740613
6.930;-5.928413;0.741235
6.940;-5.919916;0.742015
6.950;-5.911867;0.743844
6.960;-5.904807;0.747273
6.970;-5.899009;0.752349
6.980;-5.894409;0.758679
6.990;-5.890630;0.765667
7.000;-5.887108;0.772768
7.010;-5.883262;0.779677
7.020;-5.878637;0.786404
7.030;-5.872973;0.793211
7.040;-5.866225;0.800442
7.050;-5.858575;0.808290
7.060;-5.850471;0.816636
7.070;-5.842675;0.825054
7.080;-5.836218;0.832992
7.090;-5.832220;0.840037
7.100;-5.831600;0.846125
7.110;-5.834783;0.851580
7.120;-5.841525;0.857019
7.130;-5.850953;0.863176
7.140;-5.861821;0.870725
7.150;-5.872872;0.880123
7.160;-5.883176;0.891477
7.170;-5.892305;0.904474
7.180;-5.900331;0.918425
7.190;-5.907669;0.932444
7.200;-5.914877;0.945715
7.210;-5.922465;0.957753
7.220;-5.930770;0.968561
7.230;-5.939895;0.978600
7.240;-5.949708;0.988590
7.250;-5.959925;0.999221
7.260;-5.970280;1.010924
7.270;-5.980715;1.023781
7.280;-5.991454;1.037560
7.290;-6.002874;1.051839
7.300;-6.015226;1.066137
7.310;-6.028382;1.080052
7.320;-6.041770;1.093334
7.330;-6.054537;1.105899
7.340;-6.065863;1.117729
7.350;-6.075265;1.128742
7.360;-6.082771;1.138719
7.370;-6.088900;1.147385
7.380;-6.094437;1.154625
7.390;-6.100104;1.160688
7.400;-6.106288;1.166194
7.410;-6.112939;1.171895
7.420;-6.119672;1.178297
7.430;-6.126001;1.185377
7.440;-6.131587;1.192591
7.450;-6.136427;1.199169
7.460;-6.140879;1.204509
7.470;-6.145551;1.208448
7.480;-6.151066;1.211251
7.490;-6.157858;1.213371
7.500;-6.166043;1.215148
7.510;-6.175435;1.216611
7.520;-6.185639;1.217499
7.530;-6.196168;1.217450
7.540;-6.206548;1.216248
7.550;-6.216368;1.213990
7.560;-6.225304;1.211057
7.570;-6.233131;1.207925
7.580;-6.239768;1.204910
7.590;-6.245316;1.201984
7.600;-6.250059;1.198764
7.610;-6.254378;1.194676
7.620;-6.258633;1.189212
7.630;-6.263057;1.182170
7.640;-6.267724;1.173747
7.650;-6.272580;1.164478
7.660;-6.277521;1.155047
7.670;-6.282476;1.146125
7.680;-6.287449;1.138266
7.690;-6.292492;1.131882
7.700;-6.297644;1.127215
7.710;-6.302871;1.124300
7.720;-6.308095;1.122930
7.730;-6.313285;1.122663
7.740;-6.318535;1.122880
7.750;-6.324051;1.122879
7.760;-6.329978;1.121983
7.770;-6.336195;1.119637
7.780;-6.342196;1.115497
7.790;-6.347187;1.109500
7.800;-6.350308;1.101879
7.810;-6.350877;1.093101
7.820;-6.348520;1.083742
7.830;-6.343175;1.074338
7.840;-6.335013;1.065284
7.850;-6.324284;1.056799
7.860;-6.311209;1.048939
7.870;-6.295939;1.041656
7.880;-6.278633;1.034840
7.890;-6.259598;1.028360
7.900;-6.239384;1.022090
7.910;-6.218762;1.015917
7.920;-6.198613;1.009756
7.930;-6.179781;1.003534
7.940;-6.162957;0.997155
7.950;-6.148618;0.990424
7.960;-6.136977;0.983002
7.970;-6.127912;0.974461
7.980;-6.120893;0.964504
