Time[s];COPx[cm];COPy[cm]
0.010;-0.625960;2.042923
0.020;-0.599210;1.995721
0.030;-0.570796;1.950447
0.040;-0.539312;1.908871
0.050;-0.503911;1.872494
0.060;-0.464508;1.842363
0.070;-0.421878;1.818939
0.080;-0.377575;1.802047
0.090;-0.333659;1.790935
0.100;-0.292247;1.784453
0.110;-0.255073;1.781314
0.120;-0.223162;1.780424
0.130;-0.196738;1.781199
0.140;-0.175328;1.783775
0.150;-0.157993;1.789027
0.160;-0.143621;1.798346
0.170;-0.131201;1.813233
0.180;-0.120046;1.834844
0.190;-0.109896;1.863628
0.200;-0.100850;1.899162
0.210;-0.093151;1.940192
0.220;-0.086923;1.984803
0.230;-0.081992;2.030672
0.240;-0.077864;2.075404
0.250;-0.073865;2.116930
0.260;-0.069361;2.153877
0.270;-0.063949;2.185802
0.280;-0.057538;2.213183
0.290;-0.050314;2.237150
0.300;-0.042596;2.259065
0.310;-0.034661;2.280104
0.320;-0.026562;2.300986
0.330;-0.018013;2.321896
0.340;-0.008363;2.342549
0.350;0.003340;2.362337
0.360;0.018228;2.380507
0.370;0.037507;2.396314
0.380;0.062341;2.409155
0.390;0.093714;2.418621
0.400;0.132266;2.424475
0.410;0.178131;2.426535
0.420;0.230872;2.424542
0.430;0.289542;2.418087
0.440;0.352863;2.406670
0.450;0.419429;2.389890
0.460;0.487831;2.367684
0.470;0.556667;2.340474
0.480;0.624477;2.309107
0.490;0.689695;2.274611
0.500;0.750698;2.237865
0.510;0.805970;2.199351
0.520;0.854321;2.159074
0.530;0.895082;2.116700
0.540;0.928174;2.071840
0.550;0.954042;2.024338
0.560;0.973449;1.974420
0.570;0.987208;1.922625
0.580;0.995939;1.869603
0.590;0.999919;1.815865
0.600;0.999099;1.761641
0.610;0.993247;1.706875
0.620;0.982152;1.651342
0.630;0.965817;1.594815
0.640;0.944585;1.537191
0.650;0.919189;1.478555
0.660;0.890746;1.419182
0.670;0.860692;1.359492
0.680;0.830696;1.299950
0.690;0.802557;1.240948
0.700;0.778070;1.182722
0.710;0.758852;1.125386
0.720;0.746127;1.069090
0.730;0.740570;1.014232
0.740;0.742290;0.961583
0.750;0.750959;0.912234
0.760;0.766052;0.867354
0.770;0.787062;0.827853
0.780;0.813637;0.794074
0.790;0.845568;0.765624
0.800;0.882677;0.741382
0.810;0.924658;0.719657
0.820;0.970955;0.698483
0.830;1.020734;0.675983
0.840;1.072940;0.650761
0.850;1.126420;0.622207
0.860;1.180046;0.590628
0.870;1.232791;0.557139
0.880;1.283738;0.523364
0.890;1.332037;0.491044
0.900;1.376843;0.461662
0.910;1.417307;0.436157
0.920;1.452648;0.414766
0.930;1.482329;0.397034
0.940;1.506249;0.381985
0.950;1.524875;0.368379
0.960;1.539239;0.355020
0.970;1.550783;0.341029
0.980;1.561086;0.326043
0.990;1.571536;0.310270
1.000;1.583055;0.294376
1.010;1.595923;0.279234
1.020;1.609748;0.265608
1.030;1.623593;0.253888
1.040;1.636231;0.243959
1.050;1.646487;0.235255
1.060;1.653567;0.226962
1.070;1.657275;0.218313
1.080;1.658032;0.208825
1.090;1.656706;0.198415
1.100;1.654309;0.187330
1.110;1.651681;0.175941
1.120;1.649248;0.164486
1.130;1.646922;0.152888
1.140;1.644176;0.140751
1.150;1.640242;0.127519
1.160;1.634362;0.112745
1.170;1.625996;0.096350
1.180;1.614913;0.078804
1.190;1.601163;0.061132
1.200;1.584937;0.044762
1.210;1.566417;0.031239
1.220;1.545693;0.021908
1.230;1.522765;0.017648
1.240;1.497584;0.018722
1.250;1.470069;0.024796
1.260;1.440075;0.035078
1.270;1.407383;0.048543
1.280;1.371762;0.064104
1.290;1.333165;0.080682
1.300;1.291952;0.097151
1.310;1.249017;0.112292
1.320;1.205640;0.124872
1.330;1.163086;0.133880
1.340;1.122096;0.138846
1.350;1.082549;0.140083
1.360;1.043452;0.138700
1.370;1.003264;0.136349
1.380;0.960348;0.134769
1.390;0.913404;0.135296
1.400;0.861753;0.138523
1.410;0.805502;0.144231
1.420;0.745602;0.151595
1.430;0.683783;0.159570
1.440;0.622345;0.167314
1.450;0.563768;0.174518
1.460;0.510230;0.181551
1.470;0.463141;0.189361
1.480;0.422864;0.199200
1.490;0.388718;0.212288
1.500;0.359251;0.229564
1.510;0.332659;0.251566
1.520;0.307200;0.278408
1.530;0.281515;0.309789
1.540;0.254766;0.345023
1.550;0.226582;0.383098
1.560;0.196837;0.422783
1.570;0.165394;0.462787
1.580;0.131911;0.501941
1.590;0.095817;0.539379
1.600;0.056424;0.574623
1.610;0.013117;0.607527
1.620;-0.034462;0.638085
1.630;-0.086300;0.666187
1.640;-0.141960;0.691444
1.650;-0.200563;0.713205
1.660;-0.260778;0.730780
1.670;-0.320848;0.743793
1.680;-0.378732;0.752485
1.690;-0.432384;0.757820
1.700;-0.480190;0.761330
1.710;-0.521418;0.764759
1.720;-0.556570;0.769602
1.730;-0.587476;0.776713
1.740;-0.617099;0.786119
1.750;-0.649046;0.797078
1.760;-0.686870;0.808348
1.770;-0.733305;0.818520
1.780;-0.789596;0.826313
1.790;-0.855121;0.830800
1.800;-0.927447;0.831561
1.810;-1.002877;0.828764
1.820;-1.077337;0.823131
1.830;-1.147323;0.815720
1.840;-1.210570;0.807569
1.850;-1.266237;0.799327
1.860;-1.314624;0.791031
1.870;-1.356643;0.782160
1.880;-1.393302;0.771926
1.890;-1.425425;0.759674
1.900;-1.453668;0.745247
1.910;-1.478744;0.729131
1.920;-1.501639;0.712352
1.930;-1.523658;0.696156
1.940;-1.546218;0.681644
1.950;-1.570480;0.669489
1.960;-1.596977;0.659835
1.970;-1.625413;0.652377
1.980;-1.654713;0.646553
1.990;-1.683304;0.641771
2.000;-1.709543;0.637604
2.010;-1.732178;0.633911
2.020;-1.750702;0.630891
2.030;-1.765500;0.629062
2.040;-1.777728;0.629160
2.050;-1.788940;0.631949
2.060;-1.800616;0.637993
2.070;-1.813785;0.647475
2.080;-1.828887;0.660111
2.090;-1.845898;0.675202
2.100;-1.864607;0.691774
2.110;-1.884878;0.708756
2.120;-1.906775;0.725153
2.130;-1.930479;0.740177
2.140;-1.956057;0.753323
2.150;-1.983177;0.764351
2.160;-2.010913;0.773219
2.170;-2.037731;0.780016
2.180;-2.061694;0.784940
2.190;-2.080825;0.788317
2.200;-2.093506;0.790598
2.210;-2.098772;0.792308
2.220;-2.096430;0.793951
2.230;-2.086989;0.795923
2.240;-2.071454;0.798460
2.250;-2.051054;0.801653
2.260;-2.026985;0.805461
2.270;-2.000202;0.809686
2.280;-1.971321;0.813916
2.290;-1.940649;0.817472
2.300;-1.908332;0.819472
2.310;-1.874556;0.819002
2.320;-1.839700;0.815387
2.330;-1.804378;0.808444
2.340;-1.769382;0.798595
2.350;-1.735560;0.786746
2.360;-1.703674;0.773954
2.370;-1.674245;0.761050
2.380;-1.647429;0.748414
2.390;-1.622962;0.736047
2.400;-1.600229;0.723886
2.410;-1.578450;0.712163
2.420;-1.556942;0.701587
2.430;-1.535346;0.693209
2.440;-1.513703;0.688030
2.450;-1.492350;0.686560
2.460;-1.471679;0.688558
2.470;-1.451892;0.693100
2.480;-1.432863;0.698925
2.490;-1.414198;0.704881
2.500;-1.395433;0.710264
2.510;-1.376287;0.714911
2.520;-1.356810;0.719070
2.530;-1.337364;0.723189
2.540;-1.318452;0.727742
2.550;-1.300483;0.733181
2.560;-1.283583;0.739950
2.570;-1.267546;0.748501
2.580;-1.251970;0.759252
2.590;-1.236500;0.772479
2.600;-1.221082;0.788209
2.610;-1.206113;0.806178
2.620;-1.192425;0.825905
2.630;-1.181124;0.846874
2.640;-1.173319;0.868758
2.650;-1.169832;0.891583
2.660;-1.170951;0.915739
2.670;-1.176314;0.941818
2.680;-1.184948;0.970350
2.690;-1.195470;1.001582
2.700;-1.206387;1.035367
2.710;-1.216397;1.071194
2.720;-1.224609;1.108295
2.730;-1.230611;1.145803
2.740;-1.234384;1.182962
2.750;-1.236096;1.219315
2.760;-1.235841;1.254816
2.770;-1.233444;1.289787
2.780;-1.228399;1.324786
2.790;-1.219977;1.360411
2.800;-1.207459;1.397160
2.810;-1.190365;1.435351
2.820;-1.168599;1.475150
2.830;-1.142433;1.516675
2.840;-1.112365;1.560095
2.850;-1.078943;1.605645
2.860;-1.042615;1.653538
2.870;-1.003664;1.703851
2.880;-0.962239;1.756458
2.890;-0.918455;1.811045
2.900;-0.872537;1.867179
2.910;-0.824953;1.924365
2.920;-0.776508;1.982061
2.930;-0.728351;2.039608
2.940;-0.681901;2.096141
2.950;-0.638677;2.150526
2.960;-0.600062;2.201434
2.970;-0.567054;2.247578
2.980;-0.540081;2.288038
2.990;-0.518937;2.322509
3.000;-0.502843;2.351320
3.010;-0.490609;2.375205
3.020;-0.480837;2.394950
3.030;-0.472076;2.411116
3.040;-0.462890;2.423946
3.050;-0.451857;2.433464
3.060;-0.437579;2.439658
3.070;-0.418775;2.442626
3.080;-0.394464;2.442604
3.090;-0.364187;2.439878
3.100;-0.328160;2.434642
3.110;-0.287234;2.426909
3.120;-0.242651;2.416466
3.130;-0.195661;2.402897
3.140;-0.147157;2.385655
3.150;-0.097492;2.364182
3.160;-0.046525;2.338040
3.170;0.006120;2.307023
3.180;0.060682;2.271236
3.190;0.116920;2.231140
3.200;0.173948;2.187532
3.210;0.230296;2.141445
3.220;0.284182;2.093966
3.230;0.333879;2.046032
3.240;0.378053;1.998282
3.250;0.415973;1.951060
3.260;0.447565;1.904582
3.270;0.473312;1.859179
3.280;0.494044;1.815498
3.290;0.510677;1.774514
3.300;0.523975;1.737341
3.310;0.534397;1.704927
3.320;0.542067;1.677795
3.330;0.546872;1.655954
3.340;0.548654;1.639005
3.350;0.547452;1.626370
3.360;0.543685;1.617518
3.370;0.538182;1.612078
3.380;0.532028;1.609807
3.390;0.526304;1.610484
3.400;0.521851;1.613810
3.410;0.519164;1.619381
3.420;0.518452;1.626737
3.430;0.519771;1.635463
3.440;0.523150;1.645299
3.450;0.528631;1.656216
3.460;0.536225;1.668408
3.470;0.545845;1.682217
3.480;0.557270;1.697993
3.490;0.570193;1.715985
3.500;0.584319;1.736266
3.510;0.599467;1.758724
3.520;0.615597;1.783073
3.530;0.632762;1.808887
3.540;0.650983;1.835643
3.550;0.670100;1.862770
3.560;0.689660;1.889713
3.570;0.708872;1.915948
3.580;0.726675;1.940969
3.590;0.741905;1.964245
3.600;0.753543;1.985228
3.610;0.760952;2.003412
3.620;0.764049;2.018436
3.630;0.763355;2.030171
3.640;0.759925;2.038760
3.650;0.755204;2.044592
3.660;0.750869;2.048201
3.670;0.748692;2.050133
3.680;0.750422;2.050822
3.690;0.757666;2.050568
3.700;0.771713;2.049610
3.710;0.793321;2.048259
3.720;0.822528;2.046983
3.730;0.858549;2.046393
3.740;0.899873;2.047090
3.750;0.944547;2.049478
3.760;0.990580;2.053617
3.770;1.036340;2.059252
3.780;1.080790;2.065987
3.790;1.123516;2.073542
3.800;1.164562;2.081923
3.810;1.204191;2.091431
3.820;1.242657;2.102516
3.830;1.280076;2.115575
3.840;1.316385;2.130815
3.850;1.351377;2.148214
3.860;1.384754;2.167551
3.870;1.416167;2.188462
3.880;1.445250;2.210509
3.890;1.471635;2.233257
3.900;1.494944;2.256325
3.910;1.514776;2.279388
3.920;1.530729;2.302136
3.930;1.542507;2.324219
3.940;1.550094;2.345229
3.950;1.553907;2.364725
3.960;1.554841;2.382317
3.970;1.554143;2.397793
3.980;1.553144;2.411246
3.990;1.552963;2.423110
4.000;1.554292;2.434059
4.010;1.557338;2.444760
4.020;1.561924;2.455601
4.030;1.567669;2.466489
4.040;1.574173;2.476842
4.050;1.581141;2.485766
4.060;1.588432;2.492339
4.070;1.596042;2.495871
4.080;1.604022;2.496045
4.090;1.612367;2.492906
4.100;1.620915;2.486766
4.110;1.629283;2.478122
4.120;1.636895;2.467597
4.130;1.643073;2.455917
4.140;1.647167;2.443845
4.150;1.648702;2.432079
4.160;1.647483;2.421122
4.170;1.643628;2.411208
4.180;1.637530;2.402314
4.190;1.629731;2.394270
4.200;1.620780;2.386892
4.210;1.611117;2.380064
4.220;1.601020;2.373724
4.230;1.590630;2.367803
4.240;1.579988;2.362207
4.250;1.569062;2.356871
4.260;1.557772;2.351861
4.270;1.546039;2.347465
4.280;1.533867;2.344203
4.290;1.521387;2.342697
4.300;1.508819;2.343453
4.310;1.496332;2.346630
4.320;1.483915;2.351942
4.330;1.471366;2.358764
4.340;1.458407;2.366380
4.350;1.444844;2.374263
4.360;1.430653;2.382224
4.370;1.415931;2.390410
4.380;1.400766;2.399182
4.390;1.385092;2.408952
4.400;1.368639;2.419991
4.410;1.350989;2.432252
4.420;1.331714;2.445256
4.430;1.310540;2.458124
4.440;1.287453;2.469802
4.450;1.262728;2.479418
4.460;1.236871;2.486607
4.470;1.210519;2.491614
4.480;1.184345;2.495116
4.490;1.158994;2.497857
4.500;1.135039;2.500306
4.510;1.112926;2.502531
4.520;1.092900;2.504296
4.530;1.074914;2.505303
4.540;1.058606;2.505404
4.550;1.043360;2.504714
4.560;1.028491;2.503638
4.570;1.013449;2.502814
4.580;0.997964;2.502998
4.590;0.982078;2.504894
4.600;0.966059;2.508954
4.610;0.950242;2.515243
4.620;0.934852;2.523427
4.630;0.919852;2.532939
4.640;0.904882;2.543206
4.650;0.889303;2.553845
4.660;0.872325;2.564726
4.670;0.853179;2.575926
4.680;0.831262;2.587645
4.690;0.806214;2.600136
4.700;0.777924;2.613644
4.710;0.746466;2.628344
4.720;0.712048;2.644239
4.730;0.674982;2.661056
4.740;0.635726;2.678200
4.750;0.594934;2.694827
4.760;0.553507;2.710045
4.770;0.512584;2.723145
4.780;0.473490;2.733743
4.790;0.437615;2.741774
4.800;0.406255;2.747374
4.810;0.380443;2.750762
4.820;0.360823;2.752173
4.830;0.347616;2.751876
4.840;0.340672;2.750204
4.850;0.339568;2.747553
4.860;0.343683;2.744337
4.870;0.352222;2.740927
4.880;0.364195;2.737621
4.890;0.378378;2.734653
4.900;0.393317;2.732203
4.910;0.407399;2.730393
4.920;0.418996;2.729295
4.930;0.426666;2.728937
4.940;0.429382;2.729349
4.950;0.426713;2.730589
4.960;0.418875;2.732744
4.970;0.406588;2.735922
4.980;0.390734;2.740244
4.990;0.371968;2.745842
5.000;0.350419;2.752822
5.010;0.325647;2.761138
5.020;0.296831;2.770421
5.030;0.263076;2.779840
5.040;0.223663;2.788119
5.050;0.178115;2.793749
5.060;0.126081;2.795314
5.070;0.067159;2.791820
5.080;0.000829;2.782897
5.090;-0.073393;2.768874
5.100;-0.155591;2.750734
5.110;-0.245024;2.730026
5.120;-0.339830;2.708693
5.130;-0.437052;2.688802
5.140;-0.533095;2.672122
5.150;-0.624488;2.659646
5.160;-0.708735;2.651271
5.170;-0.784950;2.645809
5.180;-0.854063;2.641418
5.190;-0.918524;2.636263
5.200;-0.981552;2.629138
5.210;-1.046119;2.619759
5.220;-1.113954;2.608682
5.230;-1.184897;2.596911
5.240;-1.256873;2.585426
5.250;-1.326535;2.574807
5.260;-1.390367;2.565088
5.270;-1.445798;2.555830
5.280;-1.491907;2.546349
5.290;-1.529487;2.536021
5.300;-1.560574;2.524521
5.310;-1.587710;2.511948
5.320;-1.613268;2.498745
5.330;-1.639023;2.485473
5.340;-1.665996;2.472508
5.350;-1.694500;2.459777
5.360;-1.724272;2.446687
5.370;-1.754625;2.432282
5.380;-1.784650;2.415589
5.390;-1.813473;2.395957
5.400;-1.840528;2.373230
5.410;-1.865739;2.347696
5.420;-1.889497;2.319873
5.430;-1.912431;2.290284
5.440;-1.935017;2.259304
5.450;-1.957210;2.227127
5.460;-1.978260;2.193829
5.470;-1.996833;2.159471
5.480;-2.011438;2.124215
5.490;-2.020987;2.088377
5.500;-2.025244;2.052410
5.510;-2.024957;2.016851
5.520;-2.021595;1.982270
5.530;-2.016848;1.949271
5.540;-2.012113;1.918495
5.550;-2.008183;1.890569
5.560;-2.005221;1.865978
5.570;-2.002940;1.844928
5.580;-2.000866;1.827254
5.590;-1.998586;1.812456
5.600;-1.995926;1.799794
5.610;-1.993004;1.788394
5.620;-1.990095;1.777342
5.630;-1.987344;1.765769
5.640;-1.984432;1.752990
5.650;-1.980413;1.738659
5.660;-1.973816;1.722884
5.670;-1.963016;1.706184
5.680;-1.946679;1.689267
5.690;-1.924116;1.672744
5.700;-1.895421;1.656951
5.710;-1.861388;1.641995
5.720;-1.823269;1.627948
5.730;-1.782451;1.615049
5.740;-1.740117;1.603750
5.750;-1.696993;1.594608
5.760;-1.653252;1.588120
5.770;-1.608655;1.584609
5.780;-1.562862;1.584232
5.790;-1.515780;1.587054
5.800;-1.467767;1.593123
5.810;-1.419632;1.602461
5.820;-1.372486;1.614961
5.830;-1.327546;1.630285
5.840;-1.285959;1.647821
5.850;-1.248661;1.666758
5.860;-1.216271;1.686234
5.870;-1.189027;1.705475
5.880;-1.166792;1.723873
5.890;-1.149105;1.741003
5.900;-1.135266;1.756608
5.910;-1.124436;1.770595
5.920;-1.115722;1.783048
5.930;-1.108241;1.794264
5.940;-1.101205;1.804753
5.950;-1.094037;1.815172
5.960;-1.086517;1.826150
5.970;-1.078891;1.838101
5.980;-1.071880;1.851074
5.990;-1.066533;1.864742
6.000;-1.063958;1.878510
6.010;-1.064999;1.891707
6.020;-1.069941;1.903793
6.030;-1.078358;1.914516
6.040;-1.089182;1.923996
6.050;-1.100999;1.932691
6.060;-1.112516;1.941273
6.070;-1.123001;1.950420
6.080;-1.132524;1.960620
6.090;-1.141858;1.972014
6.100;-1.152102;1.984333
6.110;-1.164197;1.996939
6.120;-1.178538;2.008967
6.130;-1.194801;2.019548
6.140;-1.212029;2.028051
6.150;-1.228933;2.034266
6.160;-1.244285;2.038458
6.170;-1.257283;2.041274
6.180;-1.267754;2.043589
6.190;-1.276131;2.046341
6.200;-1.283217;2.050373
6.210;-1.289859;2.056295
6.220;-1.296661;2.064353
6.230;-1.303885;2.074389
6.240;-1.311549;2.085922
6.250;-1.319684;2.098360
6.260;-1.328551;2.111242
6.270;-1.338721;2.124390
6.280;-1.350922;2.137916
6.290;-1.365736;2.152093
6.300;-1.383253;2.167188
6.310;-1.402833;2.183291
6.320;-1.423061;2.200192
6.330;-1.441941;2.217339
6.340;-1.457272;2.233906
6.350;-1.467102;2.248957
6.360;-1.470169;2.261654
6.370;-1.466159;2.271426
6.380;-1.455707;2.278076
6.390;-1.440113;2.281780
6.400;-1.420880;2.282997
6.410;-1.399248;2.282304
6.420;-1.375886;2.280237
6.430;-1.350854;2.277206
6.440;-1.323791;2.273518
6.450;-1.294216;2.269471
6.460;-1.261797;2.265450
6.470;-1.226509;2.261926
6.480;-1.188670;2.259385
6.490;-1.148898;2.258226
6.500;-1.108028;2.258681
6.510;-1.067016;2.260786
6.520;-1.026830;2.264370
6.530;-0.988319;2.269073
6.540;-0.952094;2.274405
6.550;-0.918461;2.279854
6.560;-0.887446;2.285030
6.570;-0.858892;2.289773
6.580;-0.832615;2.294190
6.590;-0.808528;2.298580
6.600;-0.786695;2.303282
6.610;-0.767280;2.308504
6.620;-0.750413;2.314191
6.630;-0.736091;2.319988
6.640;-0.724166;2.325324
6.650;-0.714472;2.329573
6.660;-0.706991;2.332225
6.670;-0.701946;2.333003
6.680;-0.699708;2.331905
6.690;-0.700544;2.329175
6.700;-0.704341;2.325221
6.710;-0.710480;2.320490
6.720;-0.717945;2.315348
6.730;-0.725622;2.309991
6.740;-0.732630;2.304431
6.750;-0.738548;2.298546
6.760;-0.743443;2.292191
6.770;-0.747730;2.285328
6.780;-0.751922;2.278101
6.790;-0.756398;2.270819
6.800;-0.761254;2.263817
6.810;-0.766305;2.257270
6.820;-0.771206;2.251018
6.830;-0.775636;2.244515
6.840;-0.779416;2.236938
6.850;-0.782516;2.227426
6.860;-0.784965;2.215364
6.870;-0.786736;2.200599
6.880;-0.787712;2.183545
6.890;-0.787750;2.165102
6.900;-0.786779;2.146420
6.910;-0.784868;2.128540
6.920;-0.782207;2.112044
6.930;-0.779007;2.096846
6.940;-0.775357;2.082255
6.950;-0.771095;2.067259
6.960;-0.765778;2.050934
6.970;-0.758793;2.032767
6.980;-0.749581;2.012798
6.990;-0.737866;1.991554
7.000;-0.723787;1.969838
7.010;-0.707859;1.948447
7.020;-0.690808;1.927897
7.030;-0.673384;1.908243
7.040;-0.656250;1.889078
7.050;-0.639981;1.869723
7.060;-0.625107;1.849517
7.070;-0.612128;1.828074
7.080;-0.601428;1.805391
7.090;-0.593136;1.781777
7.100;-0.587021;1.757667
7.110;-0.582507;1.733431
7.120;-0.578837;1.709265
7.130;-0.575313;1.685212
7.140;-0.571547;1.661247
7.150;-0.567600;1.637364
7.160;-0.563961;1.613587
7.170;-0.561366;1.589920
7.180;-0.560516;1.566266
7.190;-0.561806;1.542385
7.200;-0.565116;1.517932
7.210;-0.569742;1.492583
7.220;-0.574459;1.466204
7.230;-0.577704;1.438995
7.240;-0.577823;1.411504
7.250;-0.573326;1.384487
7.260;-0.563142;1.358639
7.270;-0.546831;1.334273
7.280;-0.524751;1.311086
7.290;-0.498113;1.288104
7.300;-0.468869;1.263886
7.310;-0.439390;1.236936
7.320;-0.412013;1.206164
7.330;-0.388584;1.171230
7.340;-0.370135;1.132647
7.350;-0.356808;1.091643
7.360;-0.348011;1.049840
7.370;-0.342759;1.008827
7.380;-0.340026;0.969766
7.390;-0.339015;0.933120
7.400;-0.339281;0.898592
7.410;-0.340764;0.865272
7.420;-0.343789;0.831961
7.430;-0.349035;0.797599
7.440;-0.357445;0.761662
7.450;-0.370036;0.724359
7.460;-0.387633;0.686505
7.470;-0.410595;0.649132
7.480;-0.438644;0.612999
7.490;-0.470857;0.578279
7.500;-0.505835;0.544555
7.510;-0.541973;0.511121
7.520;-0.577726;0.477451
7.530;-0.611810;0.443634
7.540;-0.643312;0.410646
7.550;-0.671720;0.380331
7.560;-0.696873;0.355100
7.570;-0.718867;0.337405
7.580;-0.737910;0.329147
7.590;-0.754191;0.331214
7.600;-0.767812;0.343271
7.610;-0.778812;0.363837
7.620;-0.787265;0.390587
7.630;-0.793382;0.420799
7.640;-0.797546;0.451845
7.650;-0.800260;0.481625
7.660;-0.802031;0.508858
7.670;-0.803237;0.533181
7.680;-0.804021;0.555064
7.690;-0.804263;0.575585
7.700;-0.803672;0.596109
7.710;-0.801960;0.617962
7.720;-0.799009;0.642145
7.730;-0.794957;0.669183
7.740;-0.790140;0.699158
7.750;-0.784941;0.731872
7.760;-0.779605;0.767047
7.770;-0.774106;0.804415
7.780;-0.768151;0.843689
7.790;-0.761334;0.884481
7.800;-0.753389;0.926270
7.810;-0.744397;0.968486
7.820;-0.734821;1.010642
7.830;-0.725361;1.052445
7.840;-0.716719;1.093793
7.850;-0.709393;1.134678
7.860;-0.703590;1.175026
7.870;-0.699247;1.214554
7.880;-0.696110;1.252698
7.890;-0.693835;1.288704
7.900;-0.692078;1.321848
7.910;-0.690603;1.351698
7.920;-0.689359;1.378270
7.930;-0.688524;1.401963
7.940;-0.688481;1.423305
7.950;-0.689723;1.442655
7.960;-0.692727;1.460030
7.970;-0.697829;1.475133
7.980;-0.705128;1.487508
7.990;-0.714444;1.496724
8.000;-0.725338;1.502469
8.010;-0.737199;1.504558
8.020;-0.749373;1.502933
8.030;-0.761301;1.497731
8.040;-0.772616;1.489432
8.050;-0.783154;1.478991
8.060;-0.792890;1.467805
8.070;-0.801844;1.457481
8.080;-0.810011;1.449457
8.090;-0.817347;1.444645
8.100;-0.823789;1.443231
8.110;-0.829296;1.444703
