Time[s];COPx[cm];COPy[cm]
0.010;-3.549340;0.191462
0.020;-3.564614;0.199952
0.030;-3.581521;0.207773
0.040;-3.601044;0.214375
0.050;-3.623438;0.219583
0.060;-3.648294;0.223731
0.070;-3.674830;0.227727
0.080;-3.702230;0.233002
0.090;-3.729870;0.241265
0.100;-3.757319;0.254097
0.110;-3.784099;0.272485
0.120;-3.809292;0.296486
0.130;-3.831213;0.325127
0.140;-3.847357;0.356600
0.150;-3.854741;0.388663
0.160;-3.850590;0.419137
0.170;-3.833116;0.446363
0.180;-3.802086;0.469494
0.190;-3.758978;0.488579
0.200;-3.706700;0.504430
0.210;-3.649033;0.518313
0.220;-3.590003;0.531574
0.230;-3.533359;0.545286
0.240;-3.482217;0.560061
0.250;-3.438831;0.576060
0.260;-3.404428;0.593169
0.270;-3.379071;0.611230
0.280;-3.361613;0.630198
0.290;-3.349838;0.650157
0.300;-3.340903;0.671208
0.310;-3.332048;0.693341
0.320;-3.321368;0.716365
0.330;-3.308354;0.739905
0.340;-3.293975;0.763431
0.350;-3.280290;0.786283
0.360;-3.269748;0.807672
0.370;-3.264422;0.826721
0.380;-3.265391;0.842589
0.390;-3.272432;0.854666
0.400;-3.284069;0.862798
0.410;-3.297969;0.867405
0.420;-3.311568;0.869417
0.430;-3.322774;0.870049
0.440;-3.330566;0.870508
0.450;-3.335316;0.871772
0.460;-3.338698;0.874497
0.470;-3.343203;0.879041
0.480;-3.351406;0.885578
0.490;-3.365230;0.894238
0.500;-3.385453;0.905218
0.510;-3.411588;0.918818
0.520;-3.442140;0.935363
0.530;-3.475133;0.955054
0.540;-3.508759;0.977797
0.550;-3.541945;1.003085
0.560;-3.574639;1.029960
0.570;-3.607711;1.057071
0.580;-3.642467;1.082811
0.590;-3.679982;1.105487
0.600;-3.720498;1.123505
0.610;-3.763156;1.135517
0.620;-3.806185;1.140541
0.630;-3.847491;1.138043
0.640;-3.885414;1.127999
0.650;-3.919291;1.110965
0.660;-3.949575;1.088132
0.670;-3.977461;1.061339
0.680;-4.004209;1.032932
0.690;-4.030471;1.005477
0.700;-4.055897;0.981354
0.710;-4.079143;0.962374
0.720;-4.098243;0.949530
0.730;-4.111147;0.942972
0.740;-4.116218;0.942182
0.750;-4.112537;0.946277
0.760;-4.099985;0.954316
0.770;-4.079180;0.965510
0.780;-4.051357;0.979299
0.790;-4.018280;0.995339
0.800;-3.982148;1.013448
0.810;-3.945443;1.033549
0.820;-3.910664;1.055650
0.830;-3.879968;1.079826
0.840;-3.854821;1.106185
0.850;-3.835759;1.134757
0.860;-3.822387;1.165326
0.870;-3.813639;1.197250
0.880;-3.808240;1.229370
0.890;-3.805223;1.260117
0.900;-3.804273;1.287798
0.910;-3.805794;1.311018
0.920;-3.810700;1.329072
0.930;-3.820066;1.342217
0.940;-3.834772;1.351706
0.950;-3.855294;1.359568
0.960;-3.881662;1.368161
0.970;-3.913593;1.379647
0.980;-3.950686;1.395565
0.990;-3.992584;1.416610
1.000;-4.039031;1.442657
1.010;-4.089759;1.472924
1.020;-4.144242;1.506152
1.030;-4.201388;1.540663
1.040;-4.259314;1.574337
1.050;-4.315338;1.604642
1.060;-4.366259;1.628867
1.070;-4.408885;1.644613
1.080;-4.440647;1.650387
1.090;-4.460088;1.646049
1.100;-4.467021;1.632916
1.110;-4.462302;1.613467
1.120;-4.447313;1.590759
1.130;-4.423440;1.567768
1.140;-4.391756;1.546833
1.150;-4.353033;1.529343
1.160;-4.307993;1.515707
1.170;-4.257622;1.505575
1.180;-4.203350;1.498209
1.190;-4.146985;1.492891
1.200;-4.090451;1.489210
1.210;-4.035429;1.487154
1.220;-3.983017;1.487006
1.230;-3.933511;1.489159
1.240;-3.886384;1.493969
1.250;-3.840521;1.501689
1.260;-3.794646;1.512500
1.270;-3.747768;1.526568
1.280;-3.699440;1.544106
1.290;-3.649692;1.565366
1.300;-3.598674;1.590552
1.310;-3.546212;1.619668
1.320;-3.491504;1.652359
1.330;-3.433156;1.687840
1.340;-3.369556;1.724987
1.350;-3.299458;1.762562
1.360;-3.222564;1.799470
1.370;-3.139855;1.834936
1.380;-3.053533;1.868516
1.390;-2.966599;1.900011
1.400;-2.882178;1.929351
1.410;-2.802835;1.956544
1.420;-2.730079;1.981653
1.430;-2.664198;2.004760
1.440;-2.604455;2.025892
1.450;-2.549563;2.044900
1.460;-2.498254;2.061341
1.470;-2.449737;2.074399
1.480;-2.403921;2.082906
1.490;-2.361351;2.085476
1.500;-2.322936;2.080744
1.510;-2.289591;2.067627
1.520;-2.261950;2.045573
1.530;-2.240239;2.014749
1.540;-2.224334;1.976115
1.550;-2.213968;1.931360
1.560;-2.208999;1.882661
1.570;-2.209632;1.832341
1.580;-2.216496;1.782488
1.590;-2.230503;1.734634
1.600;-2.252540;1.689539
1.610;-2.283110;1.647116
1.620;-2.322089;1.606458
1.630;-2.368748;1.565978
1.640;-2.422047;1.523628
1.650;-2.481104;1.477208
1.660;-2.545642;1.424677
1.670;-2.616177;1.364387
1.680;-2.693794;1.295208
1.690;-2.779527;1.216604
1.700;-2.873520;1.128784
1.710;-2.974293;1.032953
1.720;-3.078430;0.931539
1.730;-3.180916;0.828176
1.740;-3.276113;0.727270
1.750;-3.359091;0.633224
1.760;-3.426763;0.549574
1.770;-3.478339;0.478362
1.780;-3.514943;0.419958
1.790;-3.538679;0.373292
1.800;-3.551670;0.336340
1.810;-3.555482;0.306636
1.820;-3.551034;0.281656
1.830;-3.538869;0.259049
1.840;-3.519539;0.236779
1.850;-3.493915;0.213223
1.860;-3.463319;0.187226
1.870;-3.429473;0.158083
1.880;-3.394322;0.125492
1.890;-3.359794;0.089488
1.900;-3.327570;0.050366
1.910;-3.298880;0.008571
1.920;-3.274373;-0.035442
1.930;-3.254071;-0.081290
1.940;-3.237442;-0.128623
1.950;-3.223578;-0.176959
1.960;-3.211456;-0.225476
1.970;-3.200215;-0.272884
1.980;-3.189390;-0.317456
1.990;-3.179037;-0.357238
2.000;-3.169708;-0.390393
2.010;-3.162273;-0.415581
2.020;-3.157649;-0.432269
2.030;-3.156524;-0.440843
2.040;-3.159157;-0.442489
2.050;-3.165306;-0.438888
2.060;-3.174291;-0.431829
2.070;-3.185178;-0.422874
2.080;-3.197033;-0.413127
2.090;-3.209211;-0.403182
2.100;-3.221569;-0.393238
2.110;-3.234495;-0.383368
2.120;-3.248676;-0.373857
2.130;-3.264689;-0.365450
2.140;-3.282579;-0.359392
2.150;-3.301603;-0.357159
2.160;-3.320249;-0.360006
2.170;-3.336520;-0.368508
2.180;-3.348424;-0.382304
2.190;-3.354527;-0.400120
2.200;-3.354422;-0.420036
2.210;-3.348936;-0.439899
2.220;-3.339995;-0.457747
2.230;-3.330178;-0.472133
2.240;-3.322118;-0.482301
2.250;-3.317908;-0.488180
2.260;-3.318675;-0.490259
2.270;-3.324401;-0.489393
2.280;-3.334031;-0.486635
2.290;-3.345816;-0.483104
2.300;-3.357792;-0.479913
2.310;-3.368244;-0.478123
2.320;-3.376055;-0.478686
2.330;-3.380857;-0.482323
2.340;-3.382965;-0.489345
2.350;-3.383159;-0.499487
2.360;-3.382363;-0.511878
2.370;-3.381345;-0.525189
2.380;-3.380512;-0.537916
2.390;-3.379841;-0.548706
2.400;-3.378953;-0.556647
2.410;-3.377245;-0.561450
2.420;-3.374055;-0.563447
2.430;-3.368821;-0.563378
2.440;-3.361239;-0.561983
2.450;-3.351416;-0.559553
2.460;-3.339972;-0.555594
2.470;-3.328053;-0.548765
2.480;-3.317206;-0.537093
2.490;-3.309119;-0.518381
2.500;-3.305295;-0.490697
2.510;-3.306754;-0.452792
2.520;-3.313868;-0.404408
2.530;-3.326352;-0.346405
2.540;-3.343398;-0.280694
2.550;-3.363916;-0.209987
2.560;-3.386810;-0.137399
2.570;-3.411245;-0.065996
2.580;-3.436804;0.001615
2.590;-3.463516;0.063547
2.600;-3.491755;0.118701
2.610;-3.522046;0.166655
2.620;-3.554867;0.207422
2.630;-3.590464;0.241143
2.640;-3.628719;0.267813
2.650;-3.669103;0.287122
2.660;-3.710750;0.298465
2.670;-3.752700;0.301147
2.680;-3.794217;0.294717
2.690;-3.835074;0.279304
2.700;-3.875606;0.255822
2.710;-3.916478;0.225959
2.720;-3.958226;0.191976
2.730;-4.000793;0.156426
2.740;-4.043277;0.121878
2.750;-4.084023;0.090649
2.760;-4.121036;0.064562
2.770;-4.152539;0.044724
2.780;-4.177480;0.031418
2.790;-4.195786;0.024128
2.800;-4.208316;0.021738
2.810;-4.216567;0.022844
2.820;-4.222305;0.026079
2.830;-4.227234;0.030373
2.840;-4.232738;0.035093
2.850;-4.239676;0.040070
2.860;-4.248152;0.045539
2.870;-4.257313;0.052015
2.880;-4.265256;0.060117
2.890;-4.269207;0.070351
2.900;-4.266021;0.082892
2.910;-4.252921;0.097437
2.920;-4.228248;0.113206
2.930;-4.191974;0.129105
2.940;-4.145816;0.144026
2.950;-4.092951;0.157190
2.960;-4.037423;0.168423
2.970;-3.983439;0.178263
2.980;-3.934710;0.187850
2.990;-3.893977;0.198631
3.000;-3.862784;0.211963
3.010;-3.841488;0.228775
3.020;-3.829443;0.249366
3.030;-3.825328;0.273403
3.040;-3.827517;0.300085
3.050;-3.834420;0.328399
3.060;-3.844673;0.357403
3.070;-3.857111;0.386432
3.080;-3.870553;0.415139
3.090;-3.883541;0.443352
3.100;-3.894226;0.470801
3.110;-3.900517;0.496833
3.120;-3.900491;0.520300
3.130;-3.892899;0.539695
3.140;-3.877544;0.553507
3.150;-3.855349;0.560647
3.160;-3.828068;0.560765
3.170;-3.797784;0.554313
3.180;-3.766372;0.542363
3.190;-3.735105;0.526299
3.200;-3.704507;0.507549
3.210;-3.674437;0.487467
3.220;-3.644363;0.467315
3.230;-3.613692;0.448278
3.240;-3.582011;0.431433
3.250;-3.549165;0.417676
3.260;-3.515174;0.407667
3.270;-3.480102;0.401821
3.280;-3.444031;0.400306
3.290;-3.407219;0.403013
3.300;-3.370340;0.409484
3.310;-3.334613;0.418835
3.320;-3.301634;0.429764
3.330;-3.272896;0.440701
3.340;-3.249208;0.450097
3.350;-3.230279;0.456773
3.360;-3.214703;0.460211
3.370;-3.200355;0.460700
3.380;-3.185051;0.459283
3.390;-3.167213;0.457498
3.400;-3.146330;0.457008
3.410;-3.123092;0.459274
3.420;-3.099188;0.465395
3.430;-3.076839;0.476124
3.440;-3.058221;0.491970
3.450;-3.044915;0.513251
3.460;-3.037550;0.540070
3.470;-3.035714;0.572226
3.480;-3.038172;0.609151
3.490;-3.043297;0.649890
3.500;-3.049555;0.693194
3.510;-3.055887;0.737733
3.520;-3.061913;0.782434
3.530;-3.067971;0.826836
3.540;-3.075072;0.871281
3.550;-3.084735;0.916837
3.560;-3.098675;0.964890
3.570;-3.118286;1.016553
3.580;-3.144001;1.072070
3.590;-3.174759;1.130445
3.600;-3.207842;1.189433
3.610;-3.239287;1.245956
3.620;-3.264831;1.296861
3.630;-3.281092;1.339819
3.640;-3.286532;1.374012
3.650;-3.281813;1.400337
3.660;-3.269419;1.421052
3.670;-3.252733;1.439084
3.680;-3.234955;1.457285
3.690;-3.218262;1.477884
3.700;-3.203420;1.502204
3.710;-3.189895;1.530622
3.720;-3.176327;1.562702
3.730;-3.161173;1.597437
3.740;-3.143304;1.633568
3.750;-3.122393;1.669916
3.760;-3.099006;1.705651
3.770;-3.074410;1.740368
3.780;-3.050241;1.773971
3.790;-3.028146;1.806424
3.800;-3.009535;1.837508
3.810;-2.995498;1.866726
3.820;-2.986851;1.893382
3.830;-2.984264;1.916829
3.840;-2.988367;1.936774
3.850;-2.999759;1.953531
3.860;-3.018903;1.968114
3.870;-3.045936;1.982113
3.880;-3.080521;1.997373
3.890;-3.121789;2.015596
3.900;-3.168437;2.038003
3.910;-3.218874;2.065181
3.920;-3.271363;2.097118
3.930;-3.324083;2.133377
3.940;-3.375137;2.173276
3.950;-3.422590;2.215978
3.960;-3.464617;2.260517
3.970;-3.499774;2.305860
3.980;-3.527271;2.351095
3.990;-3.547088;2.395745
4.000;-3.559796;2.440038
4.010;-3.566118;2.484937
4.020;-3.566391;2.531812
4.030;-3.560189;2.581869
4.040;-3.546338;2.635568
4.050;-3.523320;2.692307
4.060;-3.489901;2.750466
4.070;-3.445637;2.807766
4.080;-3.391061;2.861745
4.090;-3.327546;2.910204
4.100;-3.256997;2.951482
4.110;-3.181549;2.984552
4.120;-3.103387;3.008955
4.130;-3.024713;3.024648
4.140;-2.947816;3.031810
4.150;-2.875166;3.030681
4.160;-2.809404;3.021485
4.170;-2.753160;3.004444
4.180;-2.708733;2.979855
4.190;-2.677731;2.948203
4.200;-2.660828;2.910263
4.210;-2.657721;2.867191
4.220;-2.667300;2.820537
4.230;-2.687947;2.772151
4.240;-2.717873;2.723944
4.250;-2.755399;2.677547
4.260;-2.799091;2.633955
4.270;-2.847720;2.593304
4.280;-2.900048;2.554911
4.290;-2.954563;2.517609
4.300;-3.009310;2.480274
4.310;-3.061938;2.442346
4.320;-3.109952;2.404123
4.330;-3.151089;2.366719
4.340;-3.183663;2.331711
4.350;-3.206797;2.300646
4.360;-3.220483;2.274591
4.370;-3.225436;2.253889
4.380;-3.222776;2.238200
4.390;-3.213644;2.226779
4.400;-3.198912;2.218826
4.410;-3.179144;2.213776
4.420;-3.154810;2.211419
4.430;-3.126632;2.211887
4.440;-3.095875;2.215564
4.450;-3.064412;2.222936
4.460;-3.034508;2.234401
4.470;-3.008404;2.250019
4.480;-2.987842;2.269285
4.490;-2.973711;2.291008
4.500;-2.965907;2.313395
4.510;-2.963471;2.334359
4.520;-2.964965;2.351943
4.530;-2.968972;2.364711
4.540;-2.974523;2.371964
4.550;-2.981256;2.373722
4.560;-2.989243;2.370526
4.570;-2.998573;2.363131
4.580;-3.008913;2.352218
4.590;-3.019266;2.338216
4.600;-3.028018;2.321288
4.610;-3.033312;2.301452
4.620;-3.033576;2.278780
4.630;-3.028019;2.253554
4.640;-3.016882;2.226301
4.650;-3.001359;2.197711
4.660;-2.983242;2.168466
4.670;-2.964388;2.139059
4.680;-2.946147;2.109625
4.690;-2.928907;2.079835
4.700;-2.911916;2.048898
4.710;-2.893461;2.015707
4.720;-2.871417;1.979184
4.730;-2.843955;1.938748
4.740;-2.810148;1.894761
4.750;-2.770183;1.848703
4.760;-2.725117;1.802970
4.770;-2.676281;1.760322
4.780;-2.624622;1.723198
4.790;-2.570259;1.693154
4.800;-2.512453;1.670546
4.810;-2.450035;1.654516
4.820;-2.382102;1.643197
4.830;-2.308670;1.634085
4.840;-2.230980;1.624491
4.850;-2.151335;1.611998
4.860;-2.072589;1.594827
4.870;-1.997522;1.572034
4.880;-1.928325;1.543504
4.890;-1.866349;1.509790
4.900;-1.812106;1.471875
4.910;-1.765469;1.430920
4.920;-1.725921;1.388070
4.930;-1.692789;1.344319
4.940;-1.665423;1.300489
4.950;-1.643322;1.257317
4.960;-1.626190;1.215647
4.970;-1.613902;1.176596
4.980;-1.606364;1.141576
4.990;-1.603303;1.112069
5.000;-1.604100;1.089187
5.010;-1.607740;1.073234
5.020;-1.612959;1.063451
5.030;-1.618523;1.058116
5.040;-1.623514;1.054955
5.050;-1.627512;1.051695
5.060;-1.630550;1.046535
5.070;-1.632890;1.038381
5.080;-1.634720;1.026834
5.090;-1.635941;1.012000
5.100;-1.636146;0.994246
5.110;-1.634765;0.973954
5.120;-1.631291;0.951384
5.130;-1.625427;0.926656
5.140;-1.617119;0.899853
5.150;-1.606444;0.871167
5.160;-1.593427;0.840954
5.170;-1.577887;0.809655
5.180;-1.559369;0.777626
5.190;-1.537241;0.744996
5.200;-1.510952;0.711702
5.210;-1.480376;0.677721
5.220;-1.446125;0.643403
5.230;-1.409680;0.609725
5.240;-1.373234;0.578293
5.250;-1.339263;0.551044
5.260;-1.309928;0.529753
5.270;-1.286528;0.515547
5.280;-1.269187;0.508627
5.290;-1.256892;0.508257
5.300;-1.247884;0.513020
5.310;-1.240255;0.521213
5.320;-1.232573;0.531259
5.330;-1.224327;0.542022
5.340;-1.216031;0.552977
5.350;-1.209002;0.564233
5.360;-1.204893;0.576446
5.370;-1.205156;0.590646
5.380;-1.210613;0.608011
5.390;-1.221280;0.629639
5.400;-1.236477;0.656378
5.410;-1.255184;0.688764
5.420;-1.276517;0.727078
5.430;-1.300135;0.771487
5.440;-1.326431;0.822161
5.450;-1.356437;0.879289
5.460;-1.391463;0.942919
5.470;-1.432591;1.012650
5.480;-1.480167;1.087245
5.490;-1.533465;1.164324
5.500;-1.590592;1.240323
5.510;-1.648691;1.310898
5.520;-1.704383;1.371789
5.530;-1.754355;1.419920
5.540;-1.795950;1.454311
5.550;-1.827566;1.476376
5.560;-1.848760;1.489420
5.570;-1.860022;1.497536
5.580;-1.862337;1.504343
5.590;-1.856736;1.512080
5.600;-1.844027;1.521338
5.610;-1.824802;1.531441
5.620;-1.799675;1.541236
5.630;-1.769556;1.549919
5.640;-1.735819;1.557603
5.650;-1.700262;1.565440
5.660;-1.664900;1.575318
5.670;-1.631661;1.589289
5.680;-1.602104;1.608953
5.690;-1.577244;1.635005
5.700;-1.557526;1.667036
5.710;-1.542958;1.703610
5.720;-1.533320;1.742585
5.730;-1.528397;1.781555
5.740;-1.528136;1.818298
5.750;-1.532683;1.851092
5.760;-1.542271;1.878855
5.770;-1.556999;1.901131
5.780;-1.576595;1.918014
5.790;-1.600322;1.930078
5.800;-1.627092;1.938353
5.810;-1.655762;1.944321
5.820;-1.685474;1.949862
5.830;-1.715874;1.957135
5.840;-1.747143;1.968386
5.850;-1.779865;1.985699
5.860;-1.814806;2.010708
5.870;-1.852676;2.044319
5.880;-1.893902;2.086531
5.890;-1.938430;2.136398
5.900;-1.985563;2.192170
5.910;-2.033892;2.251556
5.920;-2.081383;2.312060
5.930;-2.125654;2.371321
5.940;-2.164416;2.427402
5.950;-2.195907;2.478963
5.960;-2.219189;2.525303
5.970;-2.234186;2.566254
5.980;-2.241485;2.602007
5.990;-2.242028;2.632906
6.000;-2.236834;2.659284
6.010;-2.226859;2.681368
6.020;-2.213023;2.699285
6.030;-2.196312;2.713137
6.040;-2.177851;2.723105
6.050;-2.158877;2.729503
6.060;-2.140594;2.732756
6.070;-2.123984;2.733311
6.080;-2.109638;2.731546
6.090;-2.097676;2.727723
6.100;-2.087788;2.721988
6.110;-2.079392;2.714430
6.120;-2.071842;2.705160
6.130;-2.064641;2.694364
6.140;-2.057597;2.682286
6.150;-2.050892;2.669134
6.160;-2.045053;2.654944
6.170;-2.040845;2.639466
6.180;-2.039111;2.622126
6.190;-2.040630;2.602129
6.200;-2.046025;2.578701
6.210;-2.055721;2.551398
6.220;-2.069939;2.520355
6.230;-2.088693;2.486359
6.240;-2.111769;2.450700
6.250;-2.138721;2.414836
6.260;-2.168908;2.379963
6.270;-2.201617;2.346645
6.280;-2.236225;2.314611
6.290;-2.272312;2.282832
6.300;-2.309686;2.249857
6.310;-2.348296;2.214307
6.320;-2.388114;2.175321
6.330;-2.429038;2.132747
6.340;-2.470905;2.087009
6.350;-2.513593;2.038796
6.360;-2.557173;1.988767
6.370;-2.601985;1.937454
6.380;-2.648560;1.885348
6.390;-2.697370;1.833083
6.400;-2.748493;1.781589
6.410;-2.801344;1.732109
6.420;-2.854592;1.686085
6.430;-2.906314;1.644929
6.440;-2.954359;1.609774
6.450;-2.996826;1.581241
6.460;-3.032513;1.559260
6.470;-3.061185;1.542988
6.480;-3.083579;1.530869
6.490;-3.101151;1.520866
6.500;-3.115713;1.510820
6.510;-3.129083;1.498830
6.520;-3.142860;1.483531
6.530;-3.158344;1.464228
6.540;-3.176570;1.440867
6.550;-3.198379;1.413922
6.560;-3.224455;1.384213
6.570;-3.255281;1.352727
6.580;-3.291014;1.320428
6.590;-3.331341;1.288074
6.600;-3.375423;1.256071
6.610;-3.421962;1.224435
6.620;-3.469422;1.192902
6.630;-3.516330;1.161170
6.640;-3.561599;1.129196
6.650;-3.604693;1.097387
6.660;-3.645572;1.066586
6.670;-3.684411;1.037864
6.680;-3.721240;1.012223
6.690;-3.755709;0.990316
6.700;-3.787113;0.972323
6.710;-3.814661;0.958002
6.720;-3.837857;0.946885
6.730;-3.856768;0.938474
6.740;-3.872045;0.932366
6.750;-3.884667;0.928232
6.760;-3.895535;0.925720
6.770;-3.905115;0.924317
6.780;-3.913282;0.923281
6.790;-3.919445;0.921709
6.800;-3.922878;0.918759
6.810;-3.923098;0.913965
6.820;-3.920145;0.907496
6.830;-3.914687;0.900250
6.840;-3.907984;0.893737
6.850;-3.901810;0.889823
6.860;-3.898383;0.890441
6.870;-3.900280;0.897366
6.880;-3.910256;0.912082
6.890;-3.930853;0.935700
6.900;-3.963816;0.968856
6.910;-4.009483;1.011583
6.920;-4.066461;1.063185
6.930;-4.131896;1.122227
6.940;-4.202363;1.186676
6.950;-4.275029;1.254164
6.960;-4.348474;1.322236
6.970;-4.422679;1.388489
6.980;-4.498146;1.450571
6.990;-4.574631;1.506154
7.000;-4.650196;1.552967
7.010;-4.721128;1.589017
7.020;-4.782786;1.612957
7.030;-4.831016;1.624504
7.040;-4.863471;1.624700
7.050;-4.880288;1.615881
7.060;-4.883961;1.601312
7.070;-4.878617;1.584614
7.080;-4.869094;1.569151
7.090;-4.860128;1.557586
7.100;-4.855744;1.551699
7.110;-4.858783;1.552441
7.120;-4.870519;1.560145
7.130;-4.890437;1.574775
7.140;-4.916321;1.596127
7.150;-4.944755;1.623936
7.160;-4.971975;1.657868
7.170;-4.994810;1.697392
7.180;-5.011388;1.741600
7.190;-5.021349;1.789052
7.200;-5.025531;1.837736
7.210;-5.025251;1.885193
7.220;-5.021477;1.928786
7.230;-5.014196;1.966082
7.240;-5.002225;1.995237
7.250;-4.983531;2.015235
7.260;-4.955923;2.025904
7.270;-4.917817;2.027721
7.280;-4.868797;2.021560
7.290;-4.809817;2.008547
7.300;-4.743039;1.990055
7.310;-4.671441;1.967777
7.320;-4.598326;1.943733
7.330;-4.526822;1.920086
7.340;-4.459425;1.898807
7.350;-4.397643;1.881288
7.360;-4.341784;1.868138
7.370;-4.290938;1.859255
7.380;-4.243175;1.854171
7.390;-4.195965;1.852474
7.400;-4.146767;1.854083
7.410;-4.093651;1.859216
7.420;-4.035783;1.868104
7.430;-3.973644;1.880610
7.440;-3.908941;1.896004
7.450;-3.844287;1.913011
7.460;-3.782774;1.930083
7.470;-3.727580;1.945763
7.480;-3.681635;1.959002
7.490;-3.647337;1.969343
7.500;-3.626277;1.976969
7.510;-3.618974;1.982615
7.520;-3.624672;1.987379
7.530;-3.641313;1.992475
7.540;-3.665746;1.998940
7.550;-3.694203;2.007366
7.560;-3.722965;2.017735
7.570;-3.749029;2.029457
7.580;-3.770547;2.041589
7.590;-3.786841;2.053145
7.600;-3.797992;2.063343
7.610;-3.804206;2.071711
7.620;-3.805269;2.078075
7.630;-3.800357;2.082503
7.640;-3.788250;2.085254
7.650;-3.767819;2.086709
7.660;-3.738527;2.087260
7.670;-3.700722;2.087193
7.680;-3.655597;2.086615
7.690;-3.604866;2.085459
7.700;-3.550320;2.083539
7.710;-3.493459;2.080592
7.720;-3.435323;2.076264
7.730;-3.376510;2.070018
7.740;-3.317292;2.060988
7.750;-3.257694;2.047846
7.760;-3.197508;2.028793
7.770;-3.136266;2.001764
7.780;-3.073263;1.964862
7.790;-3.007699;1.916893
7.800;-2.938946;1.857797
7.810;-2.866841;1.788786
7.820;-2.791904;1.712112
7.830;-2.715339;1.630541
7.840;-2.638830;1.546749
7.850;-2.564165;1.462827
7.860;-2.492830;1.380063
7.870;-2.425674;1.299057
7.880;-2.362764;1.220052
7.890;-2.303471;1.143335
7.900;-2.246756;1.069540
7.910;-2.191539;0.999783
7.920;-2.137036;0.935615
7.930;-2.082916;0.878823
7.940;-2.029268;0.831135
7.950;-1.976422;0.793884
7.960;-1.924731;0.767724
