Time[s];COPx[cm];COPy[cm]
0.010;-2.637968;0.630700
0.020;-2.626708;0.629045
0.030;-2.618210;0.626785
0.040;-2.614529;0.623541
0.050;-2.616548;0.619316
0.060;-2.623836;0.614467
0.070;-2.634896;0.609556
0.080;-2.647684;0.605165
0.090;-2.660213;0.601765
0.100;-2.671062;0.599656
0.110;-2.679648;0.598969
0.120;-2.686229;0.599682
0.130;-2.691650;0.601645
0.140;-2.696931;0.604581
0.150;-2.702837;0.608098
0.160;-2.709560;0.611739
0.170;-2.716646;0.615086
0.180;-2.723166;0.617891
0.190;-2.728072;0.620132
0.200;-2.730587;0.621971
0.210;-2.730473;0.623603
0.220;-2.728116;0.625100
0.230;-2.724394;0.626313
0.240;-2.720381;0.626880
0.250;-2.716937;0.626345
0.260;-2.714369;0.624372
0.270;-2.712307;0.620985
0.280;-2.709896;0.616730
0.290;-2.706226;0.612614
0.300;-2.700812;0.609783
0.310;-2.693902;0.609029
0.320;-2.686452;0.610373
0.330;-2.679763;0.612928
0.340;-2.674933;0.615163
0.350;-2.672365;0.615438
0.360;-2.671555;0.612607
0.370;-2.671253;0.606403
0.380;-2.669913;0.597491
0.390;-2.666252;0.587146
0.400;-2.659699;0.576725
0.410;-2.650534;0.567140
0.420;-2.639671;0.558532
0.430;-2.628192;0.550259
0.440;-2.616861;0.541189
0.450;-2.605854;0.530171
0.460;-2.594792;0.516523
0.470;-2.582996;0.500339
0.480;-2.569765;0.482513
0.490;-2.554516;0.464441
0.500;-2.536732;0.447537
0.510;-2.515830;0.432749
0.520;-2.491075;0.420250
0.530;-2.461646;0.409410
0.540;-2.426881;0.399045
0.550;-2.386614;0.387870
0.560;-2.341441;0.374998
0.570;-2.292791;0.360293
0.580;-2.242736;0.344401
0.590;-2.193601;0.328474
0.600;-2.147532;0.313722
0.610;-2.106158;0.301027
0.620;-2.070429;0.290769
0.630;-2.040606;0.282854
0.640;-2.016349;0.276862
0.650;-1.996870;0.272203
0.660;-1.981135;0.268226
0.670;-1.968113;0.264290
0.680;-1.957012;0.259816
0.690;-1.947450;0.254345
0.700;-1.939473;0.247594
0.710;-1.933452;0.239514
0.720;-1.929902;0.230356
0.730;-1.929326;0.220675
0.740;-1.932147;0.211261
0.750;-1.938745;0.202962
0.760;-1.949499;0.196472
0.770;-1.964773;0.192184
0.780;-1.984779;0.190157
0.790;-2.009340;0.190180
0.800;-2.037652;0.191901
0.810;-2.068222;0.194935
0.820;-2.099076;0.198969
0.830;-2.128221;0.203859
0.840;-2.154160;0.209713
0.850;-2.176218;0.216911
0.860;-2.194531;0.226027
0.870;-2.209729;0.237652
0.880;-2.222495;0.252180
0.890;-2.233209;0.269582
0.900;-2.241808;0.289264
0.910;-2.247889;0.310053
0.920;-2.250947;0.330371
0.930;-2.250608;0.348592
0.940;-2.246761;0.363488
0.950;-2.239581;0.374589
0.960;-2.229488;0.382313
0.970;-2.217114;0.387798
0.980;-2.203300;0.392518
0.990;-2.189107;0.397822
1.000;-2.175763;0.404536
1.010;-2.164508;0.412764
1.020;-2.156313;0.421932
1.030;-2.151572;0.431088
1.040;-2.149897;0.439347
1.050;-2.150130;0.446279
1.060;-2.150637;0.452090
1.070;-2.149777;0.457523
1.080;-2.146382;0.463541
1.090;-2.140036;0.470929
1.100;-2.131038;0.479993
1.110;-2.120103;0.490502
1.120;-2.107968;0.501843
1.130;-2.095091;0.513300
1.140;-2.081538;0.524258
1.150;-2.067030;0.534239
1.160;-2.051080;0.542825
1.170;-2.033155;0.549566
1.180;-2.012831;0.554008
1.190;-1.989945;0.555831
1.200;-1.964724;0.555005
1.210;-1.937835;0.551840
1.220;-1.910292;0.546893
1.230;-1.883210;0.540766
1.240;-1.857452;0.533897
1.250;-1.833350;0.526478
1.260;-1.810630;0.518532
1.270;-1.788615;0.510117
1.280;-1.766629;0.501518
1.290;-1.744404;0.493282
1.300;-1.722319;0.486055
1.310;-1.701355;0.480289
1.320;-1.682771;0.475996
1.330;-1.667643;0.472672
1.340;-1.656427;0.469405
1.350;-1.648732;0.465102
1.360;-1.643393;0.458735
1.370;-1.638771;0.449541
1.380;-1.633169;0.437165
1.390;-1.625195;0.421734
1.400;-1.614018;0.403868
1.410;-1.599481;0.384584
1.420;-1.582127;0.365121
1.430;-1.563120;0.346675
1.440;-1.544087;0.330164
1.450;-1.526878;0.316077
1.460;-1.513271;0.304509
1.470;-1.504680;0.295337
1.480;-1.501915;0.288440
1.490;-1.505054;0.283839
1.500;-1.513462;0.281684
1.510;-1.525939;0.282108
1.520;-1.540959;0.285023
1.530;-1.556928;0.289990
1.540;-1.572411;0.296240
1.550;-1.586285;0.302853
1.560;-1.597862;0.309038
1.570;-1.606976;0.314407
1.580;-1.614025;0.319103
1.590;-1.619924;0.323738
1.600;-1.625943;0.329113
1.610;-1.633464;0.335846
1.620;-1.643686;0.344064
1.630;-1.657380;0.353302
1.640;-1.674688;0.362687
1.650;-1.695017;0.371326
1.660;-1.717045;0.378714
1.670;-1.738878;0.384928
1.680;-1.758354;0.390506
1.690;-1.773495;0.396105
1.700;-1.782977;0.402124
1.710;-1.786480;0.408518
1.720;-1.784748;0.414838
1.730;-1.779308;0.420456
1.740;-1.771957;0.424847
1.750;-1.764229;0.427793
1.760;-1.757078;0.429411
1.770;-1.750842;0.430021
1.780;-1.745468;0.429919
1.790;-1.740832;0.429234
1.800;-1.737017;0.427961
1.810;-1.734440;0.426164
1.820;-1.733766;0.424194
1.830;-1.735649;0.422775
1.840;-1.740383;0.422854
1.850;-1.747638;0.425300
1.860;-1.756426;0.430579
1.870;-1.765317;0.438597
1.880;-1.772830;0.448748
1.890;-1.777808;0.460152
1.900;-1.779651;0.471947
1.910;-1.778365;0.483507
1.920;-1.774452;0.494502
1.930;-1.768762;0.504809
1.940;-1.762363;0.514329
1.950;-1.756422;0.522882
1.960;-1.752049;0.530282
1.970;-1.750090;0.536593
1.980;-1.750921;0.542366
1.990;-1.754386;0.548661
2.000;-1.759926;0.556739
2.010;-1.766888;0.567557
2.020;-1.774865;0.581326
2.030;-1.783892;0.597358
2.040;-1.794391;0.614297
2.050;-1.806870;0.630593
2.060;-1.821562;0.645029
2.070;-1.838220;0.657092
2.080;-1.856219;0.667078
2.090;-1.874896;0.675920
2.100;-1.893923;0.684829
2.110;-1.913476;0.694881
2.120;-1.934098;0.706689
2.130;-1.956346;0.720243
2.140;-1.980413;0.734951
2.150;-2.005911;0.749831
2.160;-2.031890;0.763760
2.170;-2.057065;0.775749
2.180;-2.080162;0.785191
2.190;-2.100270;0.792062
2.200;-2.117088;0.796987
2.210;-2.130946;0.801125
2.220;-2.142620;0.805844
2.230;-2.153014;0.812280
2.240;-2.162885;0.820920
2.250;-2.172733;0.831345
2.260;-2.182864;0.842238
2.270;-2.193544;0.851672
2.280;-2.205111;0.857603
2.290;-2.217932;0.858439
2.300;-2.232222;0.853520
2.310;-2.247837;0.843357
2.320;-2.264187;0.829540
2.330;-2.280347;0.814325
2.340;-2.295320;0.799993
2.350;-2.308325;0.788197
2.360;-2.319008;0.779512
2.370;-2.327513;0.773394
2.380;-2.334465;0.768549
2.390;-2.340903;0.763558
2.400;-2.348189;0.757450
2.410;-2.357866;0.750001
2.420;-2.371426;0.741690
2.430;-2.389989;0.733416
2.440;-2.413985;0.726153
2.450;-2.442975;0.720667
2.460;-2.475706;0.717352
2.470;-2.510389;0.716180
2.480;-2.545058;0.716753
2.490;-2.577875;0.718412
2.500;-2.607323;0.720388
2.510;-2.632306;0.721948
2.520;-2.652216;0.722522
2.530;-2.667011;0.721794
2.540;-2.677278;0.719743
2.550;-2.684221;0.716659
2.560;-2.689502;0.713111
2.570;-2.694941;0.709885
2.580;-2.702128;0.707854
2.590;-2.712057;0.707788
2.600;-2.724878;0.710134
2.610;-2.739861;0.714805
2.620;-2.755555;0.721108
2.630;-2.770133;0.727864
2.640;-2.781829;0.733726
2.650;-2.789355;0.737568
2.660;-2.792151;0.738775
2.670;-2.790400;0.737297
2.680;-2.784818;0.733472
2.690;-2.776353;0.727736
2.700;-2.765927;0.720394
2.710;-2.754308;0.711548
2.720;-2.742109;0.701196
2.730;-2.729896;0.689397
2.740;-2.718322;0.676396
2.750;-2.708166;0.662647
2.760;-2.700190;0.648724
2.770;-2.694796;0.635162
2.780;-2.691644;0.622308
2.790;-2.689445;0.610260
2.800;-2.686099;0.598945
2.810;-2.679231;0.588279
2.820;-2.666943;0.578266
2.830;-2.648505;0.568953
2.840;-2.624664;0.560216
2.850;-2.597422;0.551522
2.860;-2.569377;0.541852
2.870;-2.542867;0.529916
2.880;-2.519254;0.514633
2.890;-2.498593;0.495649
2.900;-2.479816;0.473634
2.910;-2.461309;0.450191
2.920;-2.441644;0.427427
2.930;-2.420137;0.407417
2.940;-2.397021;0.391792
2.950;-2.373202;0.381563
2.960;-2.349770;0.377140
2.970;-2.327494;0.378411
2.980;-2.306545;0.384815
2.990;-2.286533;0.395371
3.000;-2.266794;0.408739
3.010;-2.246780;0.423364
3.020;-2.226349;0.437733
3.030;-2.205854;0.450658
3.040;-2.186004;0.461520
3.050;-2.167551;0.470353
3.060;-2.150907;0.477759
3.070;-2.135859;0.484684
3.080;-2.121516;0.492132
3.090;-2.106575;0.500924
3.100;-2.089827;0.511532
3.110;-2.070715;0.524022
3.120;-2.049678;0.538087
3.130;-2.028089;0.553116
3.140;-2.007766;0.568306
3.150;-1.990265;0.582801
3.160;-1.976291;0.595848
3.170;-1.965544;0.606908
3.180;-1.957042;0.615677
3.190;-1.949744;0.621996
3.200;-1.943116;0.625708
3.210;-1.937342;0.626521
3.220;-1.933103;0.623973
3.230;-1.931066;0.617541
3.240;-1.931423;0.606867
3.250;-1.933713;0.591990
3.260;-1.937035;0.573467
3.270;-1.940500;0.552291
3.280;-1.943651;0.529654
3.290;-1.946637;0.506685
3.300;-1.950081;0.484249
3.310;-1.954729;0.462884
3.320;-1.961086;0.442821
3.330;-1.969184;0.424066
3.340;-1.978573;0.406469
3.350;-1.988516;0.389791
3.360;-1.998296;0.373762
3.370;-2.007476;0.358125
3.380;-2.015987;0.342679
3.390;-2.024012;0.327294
3.400;-2.031761;0.311926
3.410;-2.039262;0.296630
3.420;-2.046294;0.281575
3.430;-2.052517;0.267035
3.440;-2.057714;0.253380
3.450;-2.061999;0.241080
3.460;-2.065805;0.230726
3.470;-2.069635;0.223031
3.480;-2.073666;0.218737
3.490;-2.077440;0.218420
3.500;-2.079831;0.222277
3.510;-2.079383;0.229998
3.520;-2.074887;0.240827
3.530;-2.065982;0.253758
3.540;-2.053521;0.267802
3.550;-2.039535;0.282179
3.560;-2.026784;0.296368
3.570;-2.018040;0.310027
3.580;-2.015378;0.322842
3.590;-2.019695;0.334386
3.600;-2.030596;0.344053
3.610;-2.046580;0.351121
3.620;-2.065427;0.354939
3.630;-2.084631;0.355192
3.640;-2.101800;0.352087
3.650;-2.114961;0.346361
3.660;-2.122773;0.339051
3.670;-2.124668;0.331130
3.680;-2.120894;0.323166
3.690;-2.112431;0.315158
3.700;-2.100734;0.306634
3.710;-2.087342;0.296943
3.720;-2.073464;0.285624
3.730;-2.059682;0.272707
3.740;-2.045896;0.258810
3.750;-2.031516;0.244985
3.760;-2.015809;0.232358
3.770;-1.998233;0.221730
3.780;-1.978615;0.213323
3.790;-1.957163;0.206796
3.800;-1.934352;0.201501
3.810;-1.910787;0.196807
3.820;-1.887087;0.192332
3.830;-1.863822;0.188035
3.840;-1.841488;0.184183
3.850;-1.820522;0.181269
3.860;-1.801330;0.179860
3.870;-1.784301;0.180396
3.880;-1.769757;0.183001
3.890;-1.757865;0.187397
3.900;-1.748550;0.192988
3.910;-1.741486;0.199089
3.920;-1.736199;0.205199
3.930;-1.732184;0.211182
3.940;-1.728982;0.217261
3.950;-1.726166;0.223834
3.960;-1.723292;0.231240
3.970;-1.719897;0.239591
3.980;-1.715549;0.248756
3.990;-1.709921;0.258445
4.000;-1.702814;0.268324
4.010;-1.694143;0.278064
4.020;-1.683898;0.287331
4.030;-1.672144;0.295734
4.040;-1.659034;0.302793
4.050;-1.644840;0.307967
4.060;-1.629959;0.310758
4.070;-1.614924;0.310895
4.080;-1.600390;0.308508
4.090;-1.587090;0.304192
4.100;-1.575715;0.298888
4.110;-1.566725;0.293601
4.120;-1.560140;0.289135
4.130;-1.555437;0.285943
4.140;-1.551615;0.284152
4.150;-1.547453;0.283639
4.160;-1.541873;0.284119
4.170;-1.534270;0.285199
4.180;-1.524702;0.286464
4.190;-1.513856;0.287598
4.200;-1.502804;0.288486
4.210;-1.492626;0.289233
4.220;-1.484059;0.290096
4.230;-1.477302;0.291369
4.240;-1.472058;0.293289
4.250;-1.467758;0.295950
4.260;-1.463877;0.299261
4.270;-1.460196;0.302932
4.280;-1.456940;0.306526
4.290;-1.454733;0.309568
4.300;-1.454382;0.311693
4.310;-1.456538;0.312799
4.320;-1.461380;0.313143
4.330;-1.468427;0.313334
4.340;-1.476591;0.314188
4.350;-1.484487;0.316457
4.360;-1.490881;0.320542
4.370;-1.495124;0.326300
4.380;-1.497380;0.333055
4.390;-1.498573;0.339845
4.400;-1.500087;0.345830
4.410;-1.503358;0.350693
4.420;-1.509480;0.354838
4.430;-1.518955;0.359255
4.440;-1.531626;0.365102
4.450;-1.546801;0.373215
4.460;-1.563514;0.383785
4.470;-1.580791;0.396375
4.480;-1.597853;0.410224
4.490;-1.614179;0.424658
4.500;-1.629487;0.439390
4.510;-1.643654;0.454590
4.520;-1.656651;0.470719
4.530;-1.668492;0.488233
4.540;-1.679184;0.507265
4.550;-1.688668;0.527462
4.560;-1.696779;0.548029
4.570;-1.703236;0.567969
4.580;-1.707692;0.586395
4.590;-1.709832;0.602757
4.600;-1.709495;0.616883
4.610;-1.706813;0.628845
4.620;-1.702293;0.638769
4.630;-1.696810;0.646726
4.640;-1.691465;0.652760
4.650;-1.687315;0.657021
4.660;-1.685050;0.659865
4.670;-1.684755;0.661855
4.680;-1.685840;0.663659
4.690;-1.687164;0.665908
4.700;-1.687294;0.669094
4.710;-1.684830;0.673520
4.720;-1.678721;0.679286
4.730;-1.668504;0.686266
4.740;-1.654433;0.694096
4.750;-1.637432;0.702194
4.760;-1.618883;0.709829
4.770;-1.600312;0.716240
4.780;-1.583086;0.720791
4.790;-1.568233;0.723140
4.800;-1.556417;0.723372
4.810;-1.548034;0.722029
4.820;-1.543323;0.719972
4.830;-1.542416;0.718118
4.840;-1.545272;0.717151
4.850;-1.551540;0.717331
4.860;-1.560442;0.718494
4.870;-1.570754;0.720220
4.880;-1.580947;0.722053
4.890;-1.589468;0.723671
4.900;-1.595076;0.724938
4.910;-1.597102;0.725879
4.920;-1.595517;0.726604
4.930;-1.590780;0.727248
4.940;-1.583540;0.727917
4.950;-1.574349;0.728647
4.960;-1.563534;0.729356
4.970;-1.551260;0.729824
4.980;-1.537724;0.729735
4.990;-1.523340;0.728729
5.000;-1.508782;0.726421
5.010;-1.494849;0.722343
5.020;-1.482218;0.715887
5.030;-1.471222;0.706338
5.040;-1.461748;0.693063
5.050;-1.453321;0.675782
5.060;-1.445338;0.654810
5.070;-1.437343;0.631117
5.080;-1.429217;0.606175
5.090;-1.421213;0.581620
5.100;-1.413789;0.558830
5.110;-1.407339;0.538588
5.120;-1.401923;0.520963
5.130;-1.397169;0.505451
5.140;-1.392387;0.491299
5.150;-1.386840;0.477813
5.160;-1.380047;0.464516
5.170;-1.371944;0.451075
5.180;-1.362853;0.437108
5.190;-1.353273;0.421994
5.200;-1.343592;0.404838
5.210;-1.333865;0.384657
5.220;-1.323725;0.360732
5.230;-1.312499;0.332986
5.240;-1.299503;0.302190
5.250;-1.284416;0.269880
5.260;-1.267587;0.237989
5.270;-1.250148;0.208379
5.280;-1.233832;0.182434
5.290;-1.220584;0.160864
5.300;-1.212068;0.143704
5.310;-1.209230;0.130469
5.320;-1.212014;0.120354
5.330;-1.219343;0.112440
5.340;-1.229377;0.105850
5.350;-1.240018;0.099859
5.360;-1.249506;0.093971
5.370;-1.256905;0.087954
5.380;-1.262342;0.081847
5.390;-1.266916;0.075921
5.400;-1.272328;0.070633
5.410;-1.280363;0.066567
5.420;-1.292402;0.064351
5.430;-1.309088;0.064543
5.440;-1.330240;0.067510
5.450;-1.354997;0.073357
5.460;-1.382152;0.081935
5.470;-1.410556;0.092914
5.480;-1.439486;0.105842
5.490;-1.468857;0.120174
5.500;-1.499196;0.135241
5.510;-1.531352;0.150232
5.520;-1.566041;0.164231
5.530;-1.603392;0.176345
5.540;-1.642673;0.185936
5.550;-1.682348;0.192850
5.560;-1.720452;0.197538
5.570;-1.755156;0.200992
5.580;-1.785289;0.204468
5.590;-1.810599;0.209105
5.600;-1.831660;0.215551
5.610;-1.849500;0.223744
5.620;-1.865145;0.232929
5.630;-1.879287;0.241900
5.640;-1.892214;0.249392
5.650;-1.903983;0.254480
5.660;-1.914734;0.256855
5.670;-1.924952;0.256918
5.680;-1.935547;0.255666
5.690;-1.947691;0.254416
5.700;-1.962486;0.254453
5.710;-1.980642;0.256718
5.720;-2.002297;0.261661
5.730;-2.027049;0.269295
5.740;-2.054165;0.279428
5.750;-2.082858;0.291941
5.760;-2.112504;0.306950
5.770;-2.142736;0.324788
5.780;-2.173411;0.345800
5.790;-2.204490;0.370070
5.800;-2.235904;0.397240
5.810;-2.267420;0.426491
5.820;-2.298509;0.456679
5.830;-2.328251;0.486530
5.840;-2.355331;0.514818
5.850;-2.378194;0.540493
5.860;-2.395391;0.562789
5.870;-2.406016;0.581328
5.880;-2.410091;0.596183
5.890;-2.408716;0.607853
5.900;-2.403875;0.617126
5.910;-2.397930;0.624894
5.920;-2.392985;0.632014
5.930;-2.390329;0.639259
5.940;-2.390128;0.647320
5.950;-2.391399;0.656795
5.960;-2.392258;0.668132
5.970;-2.390339;0.681555
5.980;-2.383292;0.697032
5.990;-2.369263;0.714287
6.000;-2.347265;0.732851
6.010;-2.317372;0.752137
6.020;-2.280682;0.771502
6.030;-2.239048;0.790320
6.040;-2.194677;0.808066
6.050;-2.149756;0.824393
6.060;-2.106211;0.839171
6.070;-2.065601;0.852441
6.080;-2.029040;0.864307
6.090;-1.997069;0.874835
6.100;-1.969492;0.884021
6.110;-1.945330;0.891848
6.120;-1.923017;0.898360
6.130;-1.900880;0.903677
6.140;-1.877759;0.907913
6.150;-1.853527;0.911046
6.160;-1.829287;0.912860
6.170;-1.807096;0.913022
6.180;-1.789245;0.911278
6.190;-1.777325;0.907642
6.200;-1.771443;0.902467
6.210;-1.769936;0.896312
6.220;-1.769762;0.889671
6.230;-1.767428;0.882693
6.240;-1.760067;0.875065
6.250;-1.746246;0.866090
6.260;-1.726200;0.854923
6.270;-1.701477;0.840800
6.280;-1.674178;0.823198
6.290;-1.646168;0.801909
6.300;-1.618576;0.777082
6.310;-1.591764;0.749225
6.320;-1.565697;0.719180
6.330;-1.540440;0.688050
6.340;-1.516530;0.657107
6.350;-1.495035;0.627680
6.360;-1.477334;0.600986
6.370;-1.464739;0.577921
6.380;-1.458153;0.558837
6.390;-1.457875;0.543398
6.400;-1.463573;0.530579
6.410;-1.474365;0.518828
6.420;-1.488907;0.506367
6.430;-1.505501;0.491553
6.440;-1.522255;0.473243
6.450;-1.537372;0.451069
6.460;-1.549528;0.425534
6.470;-1.558209;0.397874
6.480;-1.563842;0.369665
6.490;-1.567630;0.342344
6.500;-1.571148;0.316815
6.510;-1.575883;0.293292
6.520;-1.582908;0.271406
6.530;-1.592775;0.250482
6.540;-1.605610;0.229867
6.550;-1.621295;0.209184
6.560;-1.639606;0.188447
6.570;-1.660264;0.168028
6.580;-1.682921;0.148510
6.590;-1.707156;0.130504
6.600;-1.732527;0.114501
6.610;-1.758676;0.100819
6.620;-1.785407;0.089647
6.630;-1.812676;0.081153
6.640;-1.840429;0.075566
6.650;-1.868322;0.073182
6.660;-1.895432;0.074286
6.670;-1.920152;0.079052
6.680;-1.940410;0.087463
6.690;-1.954197;0.099303
6.700;-1.960229;0.114182
6.710;-1.958451;0.131572
6.720;-1.950163;0.150834
6.730;-1.937712;0.171276
6.740;-1.923879;0.192260
6.750;-1.911170;0.213325
6.760;-1.901278;0.234270
6.770;-1.894852;0.255142
6.780;-1.891638;0.276116
6.790;-1.890838;0.297343
6.800;-1.891499;0.318848
6.810;-1.892766;0.340568
6.820;-1.894003;0.362514
6.830;-1.894822;0.384901
6.840;-1.895135;0.408138
6.850;-1.895201;0.432632
6.860;-1.895628;0.458523
6.870;-1.897255;0.485551
6.880;-1.900905;0.513156
6.890;-1.907070;0.540789
6.900;-1.915656;0.568217
6.910;-1.925898;0.595607
6.920;-1.936522;0.623322
6.930;-1.946131;0.651598
6.940;-1.953655;0.680308
6.950;-1.958678;0.708930
6.960;-1.961468;0.736725
6.970;-1.962700;0.762965
6.980;-1.963045;0.787116
6.990;-1.962853;0.808869
7.000;-1.962115;0.828029
7.010;-1.960662;0.844319
7.020;-1.958464;0.857200
7.030;-1.955818;0.865848
7.040;-1.953333;0.869313
7.050;-1.951731;0.866843
7.060;-1.951590;0.858228
7.070;-1.953169;0.844048
7.080;-1.956410;0.825706
7.090;-1.961083;0.805220
7.100;-1.966964;0.784798
7.110;-1.973908;0.766336
7.120;-1.981777;0.751009
7.130;-1.990280;0.739126
7.140;-1.998847;0.730274
7.150;-2.006637;0.723684
7.160;-2.012681;0.718641
7.170;-2.016159;0.714744
7.180;-2.016673;0.711915
7.190;-2.014419;0.710175
7.200;-2.010148;0.709313
7.210;-2.004916;0.708657
7.220;-1.999735;0.707074
7.230;-1.995288;0.703241
7.240;-1.991827;0.696069
7.250;-1.989303;0.685093
7.260;-1.987611;0.670641
7.270;-1.986825;0.653686
7.280;-1.987281;0.635456
7.290;-1.989429;0.616991
7.300;-1.993531;0.598878
7.310;-1.999371;0.581260
7.320;-2.006172;0.564098
7.330;-2.012793;0.547495
7.340;-2.018125;0.531874
7.350;-2.021476;0.517908
7.360;-2.022784;0.506243
7.370;-2.022597;0.497163
7.380;-2.021882;0.490429
7.390;-2.021778;0.485350
7.400;-2.023369;0.481079
7.410;-2.027495;0.476927
7.420;-2.034576;0.472528
7.430;-2.044426;0.467772
7.440;-2.056145;0.462597
7.450;-2.068175;0.456794
7.460;-2.078579;0.449963
7.470;-2.085430;0.441632
7.480;-2.087200;0.431478
7.490;-2.082997;0.419550
7.500;-2.072639;0.406389
7.510;-2.056596;0.393006
7.520;-2.035848;0.380686
7.530;-2.011696;0.370684
7.540;-1.985546;0.363873
7.550;-1.958662;0.360493
7.560;-1.931965;0.360092
7.570;-1.905936;0.361718
7.580;-1.880651;0.364273
7.590;-1.855954;0.366898
7.600;-1.831698;0.369201
7.610;-1.807971;0.371255
7.620;-1.785197;0.373373
7.630;-1.764024;0.375810
7.640;-1.745036;0.378545
7.650;-1.728399;0.381313
7.660;-1.713632;0.383835
7.670;-1.699632;0.386127
7.680;-1.684938;0.388647
7.690;-1.668114;0.392178
7.700;-1.648081;0.397468
7.710;-1.624293;0.404811
7.720;-1.596721;0.413772
7.730;-1.565716;0.423229
7.740;-1.531869;0.431712
7.750;-1.495974;0.437903
7.760;-1.459116;0.441075
7.770;-1.422775;0.441313
7.780;-1.388787;0.439449
7.790;-1.359084;0.436762
7.800;-1.335244;0.434547
7.810;-1.318052;0.433738
7.820;-1.307276;0.434710
7.830;-1.301770;0.437310
7.840;-1.299903;0.441042
7.850;-1.300119;0.445273
7.860;-1.301394;0.449391
7.870;-1.303414;0.452906
7.880;-1.306466;0.455540
7.890;-1.311147;0.457305
7.900;-1.318032;0.458571
7.910;-1.327433;0.460018
7.920;-1.339294;0.462430
7.930;-1.353241;0.466359
7.940;-1.368718;0.471781
7.950;-1.385139;0.477985
7.960;-1.401976;0.483823
7.970;-1.418785;0.488228
7.980;-1.435188;0.490741
