Time[s];COPx[cm];COPy[cm]
0.010;2.692074;0.796416
0.020;2.590585;0.773176
0.030;2.481867;0.753139
0.040;2.360267;0.738782
0.050;2.223331;0.731526
0.060;2.072450;0.731485
0.070;1.912689;0.737560
0.080;1.751809;0.747932
0.090;1.598667;0.760804
0.100;1.461423;0.775113
0.110;1.346107;0.790841
0.120;1.255998;0.808786
0.130;1.191908;0.829950
0.140;1.153092;0.854928
0.150;1.138327;0.883605
0.160;1.146726;0.915226
0.170;1.178060;0.948682
0.180;1.232576;0.982806
0.190;1.310493;1.016546
0.200;1.411422;1.049013
0.210;1.533953;1.079436
0.220;1.675539;1.107085
0.230;1.832657;1.131214
0.240;2.001135;1.151082
0.250;2.176484;1.166081
0.260;2.354164;1.175926
0.270;2.529781;1.180823
0.280;2.699253;1.181532
0.290;2.858981;1.179272
0.300;3.006000;1.175479
0.310;3.138066;1.171486
0.320;3.253593;1.168230
0.330;3.351464;1.166084
0.340;3.430778;1.164874
0.350;3.490681;1.164068
0.360;3.530375;1.163044
0.370;3.549299;1.161342
0.380;3.547421;1.158802
0.390;3.525491;1.155518
0.400;3.485163;1.151634
0.410;3.428900;1.147088
0.420;3.359719;1.141469
0.430;3.280913;1.134067
0.440;3.195923;1.124141
0.450;3.108416;1.111275
0.460;3.022463;1.095678
0.470;2.942575;1.078279
0.480;2.873435;1.060532
0.490;2.819341;1.043994
0.500;2.783580;1.029848
0.510;2.768007;1.018569
0.520;2.773018;1.009853
0.530;2.797899;1.002791
0.540;2.841365;0.996197
0.550;2.902056;0.988936
0.560;2.978799;0.980149
0.570;3.070607;0.969355
0.580;3.176470;0.956466
0.590;3.295055;0.941791
0.600;3.424421;0.926033
0.610;3.561842;0.910281
0.620;3.703848;0.895895
0.630;3.846513;0.884273
0.640;3.985935;0.876543
0.650;4.118780;0.873302
0.660;4.242693;0.874498
0.670;4.356436;0.879499
0.680;4.459710;0.887324
0.690;4.552735;0.896978
0.700;4.635804;0.907773
0.710;4.709000;0.919482
0.720;4.772184;0.932279
0.730;4.825200;0.946511
0.740;4.868109;0.962442
0.750;4.901333;0.980070
0.760;4.925646;0.999068
0.770;4.942092;1.018856
0.780;4.951917;1.038774
0.790;4.956555;1.058316
0.800;4.957629;1.077338
0.810;4.956896;1.096175
0.820;4.956088;1.115634
0.830;4.956688;1.136852
0.840;4.959719;1.161045
0.850;4.965643;1.189193
0.860;4.974411;1.221769
0.870;4.985663;1.258610
0.880;4.999002;1.298994
0.890;5.014232;1.341885
0.900;5.031467;1.386246
0.910;5.051053;1.431302
0.920;5.073339;1.476667
0.930;5.098420;1.522338
0.940;5.125963;1.568593
0.950;5.155251;1.615863
0.960;5.185413;1.664606
0.970;5.215753;1.715203
0.980;5.246026;1.767933
0.990;5.276515;1.823013
1.000;5.307927;1.880697
1.010;5.341124;1.941347
1.020;5.376833;2.005444
1.030;5.415420;2.073482
1.040;5.456828;2.145795
1.050;5.500710;2.222368
1.060;5.546680;2.302747
1.070;5.594559;2.386123
1.080;5.644489;2.471566
1.090;5.696872;2.558299
1.100;5.752153;2.645857
1.110;5.810555;2.734051
1.120;5.871845;2.822758
1.130;5.935219;2.911623
1.140;5.999337;2.999832
1.150;6.062481;3.086072
1.160;6.122768;3.168730
1.170;6.178339;3.246285
1.180;6.227467;3.317682
1.190;6.268579;3.382543
1.200;6.300248;3.441084
1.210;6.321197;3.493827
1.220;6.330359;3.541285
1.230;6.326963;3.583737
1.240;6.310602;3.621142
1.250;6.281215;3.653171
1.260;6.238972;3.679304
1.270;6.184116;3.698963
1.280;6.116862;3.711628
1.290;6.037448;3.716923
1.300;5.946340;3.714682
1.310;5.844533;3.705008
1.320;5.733779;3.688352
1.330;5.616601;3.665582
1.340;5.496019;3.638020
1.350;5.375064;3.607386
1.360;5.256266;3.575595
1.370;5.141337;3.544443
1.380;5.031124;3.515267
1.390;4.925788;3.488705
1.400;4.825058;3.464637
1.410;4.728441;3.442338
1.420;4.635264;3.420764
1.430;4.544548;3.398887
1.440;4.454781;3.375999
1.450;4.363686;3.351902
1.460;4.268157;3.326955
1.470;4.164421;3.301914
1.480;4.048493;3.277604
1.490;3.916839;3.254516
1.500;3.767097;3.232490
1.510;3.598678;3.210582
1.520;3.413063;3.187194
1.530;3.213688;3.160425
1.540;3.005350;3.128568
1.550;2.793211;3.090601
1.560;2.581636;3.046513
1.570;2.373217;2.997302
1.580;2.168341;2.944620
1.590;1.965414;2.890229
1.600;1.761610;2.835490
1.610;1.553838;2.781107
1.620;1.339648;2.727188
1.630;1.117922;2.673557
1.640;0.889330;2.620177
1.650;0.656551;2.567514
1.660;0.424258;2.516675
1.670;0.198796;2.469223
1.680;-0.012555;2.426701
1.690;-0.202725;2.390021
1.700;-0.366230;2.358955
1.710;-0.500394;2.331933
1.720;-0.605971;2.306245
1.730;-0.686889;2.278574
1.740;-0.749193;2.245669
1.750;-0.799546;2.204929
1.760;-0.843789;2.154744
1.770;-0.885953;2.094535
1.780;-0.927891;2.024510
1.790;-0.969507;1.945254
1.800;-1.009391;1.857316
1.810;-1.045617;1.760972
1.820;-1.076473;1.656237
1.830;-1.100914;1.543113
1.840;-1.118627;1.421917
1.850;-1.129704;1.293560
1.860;-1.134063;1.159647
1.870;-1.130892;1.022408
1.880;-1.118342;0.884420
1.890;-1.093638;0.748182
1.900;-1.053617;0.615644
1.910;-0.995512;0.487855
1.920;-0.917725;0.364894
1.930;-0.820311;0.246099
1.940;-0.705017;0.130505
1.950;-0.574897;0.017295
1.960;-0.433673;-0.093905
1.970;-0.285064;-0.202934
1.980;-0.132272;-0.309176
1.990;0.022236;-0.411724
2.000;0.176684;-0.509534
2.010;0.329789;-0.601578
2.020;0.480558;-0.686969
2.030;0.628170;-0.765063
2.040;0.771938;-0.835486
2.050;0.911256;-0.898092
2.060;1.045490;-0.952884
2.070;1.173820;-0.999956
2.080;1.295140;-1.039503
2.090;1.408097;-1.071895
2.100;1.511249;-1.097770
2.110;1.603248;-1.118058
2.120;1.682929;-1.133897
2.130;1.749295;-1.146431
2.140;1.801499;-1.156599
2.150;1.838919;-1.165039
2.160;1.861414;-1.172146
2.170;1.869672;-1.178277
2.180;1.865486;-1.183983
2.190;1.851772;-1.190137
2.200;1.832227;-1.197860
2.210;1.810709;-1.208296
2.220;1.790539;-1.222381
2.230;1.774006;-1.240760
2.240;1.762302;-1.263907
2.250;1.755908;-1.292313
2.260;1.755248;-1.326596
2.270;1.761242;-1.367413
2.280;1.775493;-1.415214
2.290;1.799991;-1.469997
2.300;1.836488;-1.531205
2.310;1.885833;-1.597845
2.320;1.947515;-1.668782
2.330;2.019559;-1.743096
2.340;2.098751;-1.820328
2.350;2.181097;-1.900508
2.360;2.262409;-1.983945
2.370;2.338917;-2.070900
2.380;2.407791;-2.161260
2.390;2.467432;-2.254347
2.400;2.517440;-2.348874
2.410;2.558254;-2.443084
2.420;2.590578;-2.535069
2.430;2.614767;-2.623195
2.440;2.630404;-2.706526
2.450;2.636250;-2.785062
2.460;2.630600;-2.859659
2.470;2.611930;-2.931601
2.480;2.579566;-3.001953
2.490;2.534067;-3.070943
2.500;2.477157;-3.137603
2.510;2.411202;-3.199793
2.520;2.338492;-3.254530
2.530;2.260687;-3.298478
2.540;2.178748;-3.328453
2.550;2.093371;-3.341917
2.560;2.005703;-3.337447
2.570;1.918000;-3.315150
2.580;1.833893;-3.276864
2.590;1.758149;-3.226001
2.600;1.695955;-3.166954
2.610;1.651956;-3.104213
2.620;1.629342;-3.041486
2.630;1.629290;-2.981145
2.640;1.650876;-2.924213
2.650;1.691415;-2.870836
2.660;1.747049;-2.820943
2.670;1.813397;-2.774754
2.680;1.886158;-2.732910
2.690;1.961578;-2.696177
2.700;2.036763;-2.664924
2.710;2.109815;-2.638623
2.720;2.179814;-2.615636
2.730;2.246662;-2.593429
2.740;2.310848;-2.569198
2.750;2.373151;-2.540691
2.760;2.434319;-2.506861
2.770;2.494763;-2.468042
2.780;2.554332;-2.425539
2.790;2.612258;-2.380831
2.800;2.667292;-2.334773
2.810;2.717994;-2.287171
2.820;2.763040;-2.236905
2.830;2.801454;-2.182543
2.840;2.832663;-2.123148
2.850;2.856423;-2.058928
2.860;2.872676;-1.991443
2.870;2.881434;-1.923347
2.880;2.882743;-1.857741
2.890;2.876729;-1.797367
2.900;2.863715;-1.743849
2.910;2.844399;-1.697184
2.920;2.820019;-1.655625
2.930;2.792416;-1.615969
2.940;2.763929;-1.574210
2.950;2.737121;-1.526377
2.960;2.714411;-1.469391
2.970;2.697690;-1.401663
2.980;2.688022;-1.323254
2.990;2.685495;-1.235559
3.000;2.689278;-1.140639
3.010;2.697908;-1.040496
3.020;2.709705;-0.936544
3.030;2.723166;-0.829421
3.040;2.737206;-0.719127
3.050;2.751217;-0.605345
3.060;2.765003;-0.487777
3.070;2.778681;-0.366381
3.080;2.792600;-0.241458
3.090;2.807293;-0.113607
3.100;2.823429;0.016385
3.110;2.841724;0.147633
3.120;2.862801;0.279173
3.130;2.887035;0.409944
3.140;2.914471;0.538794
3.150;2.944824;0.664593
3.160;2.977545;0.786378
3.170;3.011867;0.903448
3.180;3.046782;1.015315
3.190;3.080949;1.121539
3.200;3.112631;1.221527
3.210;3.139751;1.314439
3.220;3.160102;1.399304
3.230;3.171642;1.475292
3.240;3.172777;1.542037
3.250;3.162552;1.599851
3.260;3.140722;1.649767
3.270;3.107698;1.693426
3.280;3.064366;1.732834
3.290;3.011812;1.770059
3.300;2.951003;1.806892
3.310;2.882540;1.844550
3.320;2.806576;1.883475
3.330;2.722927;1.923234
3.340;2.631340;1.962499
3.350;2.531816;1.999112
3.360;2.424874;2.030273
3.370;2.311655;2.052915
3.380;2.193793;2.064282
3.390;2.073143;2.062600
3.400;1.951482;2.047644
3.410;1.830332;2.020983
3.420;1.710978;1.985756
3.430;1.594634;1.946014
3.440;1.482612;1.905817
3.450;1.376374;1.868373
3.460;1.277379;1.835448
3.470;1.186775;1.807163
3.480;1.105091;1.782219
3.490;1.032100;1.758455
3.500;0.966952;1.733554
3.510;0.908502;1.705645
3.520;0.855703;1.673664
3.530;0.807877;1.637444
3.540;0.764824;1.597602
3.550;0.726786;1.555325
3.560;0.694334;1.512090
3.570;0.668211;1.469364
3.580;0.649155;1.428293
3.590;0.637720;1.389449
3.600;0.634122;1.352714
3.610;0.638130;1.317395
3.620;0.649019;1.282540
3.630;0.665579;1.247312
3.640;0.686206;1.211270
3.650;0.709095;1.174459
3.660;0.732548;1.137307
3.670;0.755364;1.100445
3.680;0.777200;1.064524
3.690;0.798755;1.030126
3.700;0.821658;0.997734
3.710;0.848040;0.967710
3.720;0.879906;0.940201
3.730;0.918559;0.915009
3.740;0.964278;0.891487
3.750;1.016380;0.868552
3.760;1.073540;0.844840
3.770;1.134147;0.818960
3.780;1.196494;0.789738
3.790;1.258745;0.756378
3.800;1.318808;0.718514
3.810;1.374276;0.676219
3.820;1.422608;0.629972
3.830;1.461538;0.580591
3.840;1.489613;0.529114
3.850;1.506620;0.476649
3.860;1.513711;0.424202
3.870;1.513102;0.372508
3.880;1.507451;0.321898
3.890;1.499122;0.272239
3.900;1.489654;0.223012
3.910;1.479602;0.173512
3.920;1.468829;0.123129
3.930;1.457083;0.071551
3.940;1.444643;0.018812
3.950;1.432753;-0.034861
3.960;1.423678;-0.089273
3.970;1.420369;-0.144433
3.980;1.425865;-0.200605
3.990;1.442695;-0.258241
4.000;1.472482;-0.317836
4.010;1.515861;-0.379769
4.020;1.572664;-0.444193
4.030;1.642183;-0.511002
4.040;1.723370;-0.579880
4.050;1.814893;-0.650387
4.060;1.915100;-0.722045
4.070;2.022006;-0.794415
4.080;2.133374;-0.867123
4.090;2.246921;-0.939841
4.100;2.360548;-1.012207
4.110;2.472516;-1.083744
4.120;2.581453;-1.153811
4.130;2.686224;-1.221625
4.140;2.785721;-1.286382
4.150;2.878721;-1.347417
4.160;2.963873;-1.404342
4.170;3.039794;-1.457078
4.180;3.105213;-1.505792
4.190;3.159086;-1.550784
4.200;3.200670;-1.592409
4.210;3.229605;-1.631020
4.220;3.245981;-1.666941
4.230;3.250417;-1.700387
4.240;3.244091;-1.731360
4.250;3.228763;-1.759555
4.260;3.206740;-1.784333
4.270;3.180778;-1.804778
4.280;3.153866;-1.819840
4.290;3.128924;-1.828559
4.300;3.108498;-1.830325
4.310;3.094565;-1.825108
4.320;3.088489;-1.813533
4.330;3.091109;-1.796710
4.340;3.102906;-1.775852
4.350;3.124179;-1.751822
4.360;3.155157;-1.724830
4.370;3.196031;-1.694406
4.380;3.246898;-1.659612
4.390;3.307692;-1.619383
4.400;3.378145;-1.572812
4.410;3.457782;-1.519311
4.420;3.545907;-1.458643
4.430;3.641547;-1.390878
4.440;3.743382;-1.316374
4.450;3.849726;-1.235830
4.460;3.958626;-1.150371
4.470;4.068054;-1.061579
4.480;4.176140;-0.971384
4.490;4.281335;-0.881798
4.500;4.382477;-0.794568
4.510;4.478723;-0.710838
4.520;4.569398;-0.630955
4.530;4.653824;-0.554469
4.540;4.731211;-0.480332
4.550;4.800616;-0.407270
4.560;4.860988;-0.334249
4.570;4.911287;-0.260898
4.580;4.950677;-0.187769
4.590;4.978717;-0.116338
4.600;4.995452;-0.048742
4.610;5.001344;0.012668
4.620;4.997063;0.065865
4.630;4.983275;0.109635
4.640;4.960524;0.143932
4.650;4.929262;0.169970
4.660;4.889959;0.190015
4.670;4.843195;0.206914
4.680;4.789649;0.223532
4.690;4.730011;0.242243
4.700;4.664912;0.264606
4.710;4.594974;0.291209
4.720;4.521037;0.321645
4.730;4.444501;0.354585
4.740;4.367593;0.387935
4.750;4.293385;0.419126
4.760;4.225449;0.445532
4.770;4.167226;0.464961
4.780;4.121372;0.476078
4.790;4.089331;0.478607
4.800;4.071300;0.473234
4.810;4.066532;0.461260
4.820;4.073783;0.444123
4.830;4.091703;0.422967
4.840;4.119051;0.398395
4.850;4.154763;0.370472
4.860;4.197923;0.338938
4.870;4.247731;0.303519
4.880;4.303465;0.264186
4.890;4.364419;0.221247
4.900;4.429833;0.175296
4.910;4.498806;0.127046
4.920;4.570286;0.077140
4.930;4.643129;0.025990
4.940;4.716210;-0.026293
4.950;4.788510;-0.079843
4.960;4.859095;-0.134899
4.970;4.927022;-0.191648
4.980;4.991252;-0.250103
4.990;5.050673;-0.310026
5.000;5.104245;-0.370893
5.010;5.151165;-0.431894
5.020;5.190924;-0.491992
5.030;5.223205;-0.550060
5.040;5.247711;-0.605084
5.050;5.264062;-0.656400
5.060;5.271803;-0.703886
5.070;5.270514;-0.748000
5.080;5.259927;-0.789636
5.090;5.239997;-0.829850
5.100;5.210917;-0.869559
5.110;5.173125;-0.909319
5.120;5.127313;-0.949182
5.130;5.074421;-0.988620
5.140;5.015547;-1.026565
5.150;4.951763;-1.061576
5.160;4.883909;-1.092169
5.170;4.812455;-1.117199
5.180;4.737522;-1.136125
5.190;4.659027;-1.149034
5.200;4.576855;-1.156436
5.210;4.491004;-1.158962
5.220;4.401674;-1.157135
5.230;4.309357;-1.151294
5.240;4.214917;-1.141656
5.250;4.119650;-1.128442
5.260;4.025248;-1.111981
5.270;3.933634;-1.092734
5.280;3.846640;-1.071262
5.290;3.765594;-1.048130
5.300;3.690992;-1.023807
5.310;3.622395;-0.998575
5.320;3.558632;-0.972523
5.330;3.498242;-0.945660
5.340;3.439964;-0.918124
5.350;3.383070;-0.890370
5.360;3.327433;-0.863206
5.370;3.273338;-0.837622
5.380;3.221181;-0.814484
5.390;3.171227;-0.794260
5.400;3.123517;-0.776912
5.410;3.077934;-0.761974
5.420;3.034356;-0.748757
5.430;2.992797;-0.736554
5.440;2.953490;-0.724803
5.450;2.916870;-0.713194
5.460;2.883466;-0.701755
5.470;2.853741;-0.690902
5.480;2.827945;-0.681426
5.490;2.806021;-0.674379
5.500;2.787615;-0.670883
5.510;2.772179;-0.671906
5.520;2.759123;-0.678083
5.530;2.747983;-0.689653
5.540;2.738529;-0.706509
5.550;2.730771;-0.728319
5.560;2.724871;-0.754656
5.570;2.721002;-0.785100
5.580;2.719245;-0.819317
5.590;2.719553;-0.857102
5.600;2.721767;-0.898359
5.610;2.725623;-0.943035
5.620;2.730720;-0.991010
5.630;2.736478;-1.042004
5.640;2.742120;-1.095561
5.650;2.746755;-1.151093
5.660;2.749543;-1.207949
5.670;2.749916;-1.265429
5.680;2.747776;-1.322741
5.690;2.743602;-1.378964
5.700;2.738412;-1.433086
5.710;2.733630;-1.484153
5.720;2.730886;-1.531493
5.730;2.731790;-1.574935
5.740;2.737703;-1.614930
5.750;2.749491;-1.652512
5.760;2.767335;-1.689088
5.770;2.790697;-1.726144
5.780;2.818464;-1.764950
5.790;2.849253;-1.806356
5.800;2.881756;-1.850693
5.810;2.915025;-1.897814
5.820;2.948622;-1.947246
5.830;2.982561;-1.998396
5.840;3.017101;-2.050732
5.850;3.052464;-2.103866
5.860;3.088615;-2.157546
5.870;3.125163;-2.211575
5.880;3.161401;-2.265696
5.890;3.196436;-2.319486
5.900;3.229343;-2.372303
5.910;3.259287;-2.423318
5.920;3.285579;-2.471625
5.930;3.307630;-2.516371
5.940;3.324887;-2.556846
5.950;3.336785;-2.592514
5.960;3.342804;-2.622963
5.970;3.342610;-2.647811
5.980;3.336270;-2.666608
5.990;3.324448;-2.678838
6.000;3.308475;-2.684062
6.010;3.290230;-2.682174
6.020;3.271802;-2.673633
6.030;3.255045;-2.659561
6.040;3.241200;-2.641632
6.050;3.230734;-2.621774
6.060;3.223466;-2.601785
6.070;3.218917;-2.582984
6.080;3.216721;-2.566007
6.090;3.216934;-2.550781
6.100;3.220121;-2.536664
6.110;3.227197;-2.522674
6.120;3.239114;-2.507735
6.130;3.256550;-2.490910
6.140;3.279706;-2.471569
6.150;3.308252;-2.449474
6.160;3.341387;-2.424782
6.170;3.377934;-2.397962
6.180;3.416422;-2.369662
6.190;3.455157;-2.340570
6.200;3.492307;-2.311303
6.210;3.526044;-2.282332
6.220;3.554749;-2.253959
6.230;3.577235;-2.226341
6.240;3.592896;-2.199562
6.250;3.601706;-2.173698
6.260;3.604054;-2.148830
6.270;3.600493;-2.124969
6.280;3.591490;-2.101940
6.290;3.577285;-2.079306
6.300;3.557844;-2.056397
6.310;3.532934;-2.032449
6.320;3.502293;-2.006748
6.330;3.465881;-1.978675
6.340;3.424136;-1.947639
6.350;3.378104;-1.912950
6.360;3.329387;-1.873741
6.370;3.279909;-1.829010
6.380;3.231623;-1.777790
6.390;3.186262;-1.719433
6.400;3.145190;-1.653920
6.410;3.109347;-1.582085
6.420;3.079238;-1.505619
6.430;3.054950;-1.426786
6.440;3.036175;-1.347900
6.450;3.022263;-1.270727
6.460;3.012342;-1.196006
6.470;3.005494;-1.123233
6.480;3.000956;-1.050798
6.490;2.998276;-0.976438
6.500;2.997351;-0.897846
6.510;2.998332;-0.813254
6.520;3.001443;-0.721790
6.530;3.006766;-0.623549
6.540;3.014068;-0.519416
6.550;3.022770;-0.410777
6.560;3.032063;-0.299213
6.570;3.041141;-0.186261
6.580;3.049420;-0.073250
6.590;3.056651;0.038788
6.600;3.062863;0.149146
6.610;3.068213;0.257377
6.620;3.072816;0.363156
6.630;3.076646;0.466078
6.640;3.079519;0.565475
6.650;3.081128;0.660335
6.660;3.081103;0.749346
6.670;3.079052;0.831052
6.680;3.074610;0.904074
6.690;3.067482;0.967341
6.700;3.057479;1.020315
6.710;3.044536;1.063115
6.720;3.028708;1.096476
6.730;3.010161;1.121530
6.740;2.989169;1.139496
6.750;2.966109;1.151396
6.760;2.941431;1.157886
6.770;2.915614;1.159244
6.780;2.889111;1.155524
6.790;2.862345;1.146804
6.800;2.835732;1.133441
6.810;2.809744;1.116243
6.820;2.784952;1.096522
6.830;2.762057;1.076009
6.840;2.741899;1.056645
6.850;2.725468;1.040258
6.860;2.713871;1.028231
6.870;2.708229;1.021257
6.880;2.709486;1.019270
6.890;2.718224;1.021557
6.900;2.734580;1.027036
6.910;2.758283;1.034610
6.920;2.788792;1.043485
6.930;2.825434;1.053366
6.940;2.867478;1.064459
6.950;2.914164;1.077266
6.960;2.964694;1.092277
6.970;3.018211;1.109663
6.980;3.073792;1.129113
6.990;3.130463;1.149861
7.000;3.187251;1.170831
7.010;3.243217;1.190805
7.020;3.297445;1.208569
7.030;3.348951;1.223048
7.040;3.396587;1.233424
7.050;3.439007;1.239221
7.060;3.474751;1.240306
7.070;3.502437;1.236824
7.080;3.520981;1.229078
7.090;3.529782;1.217403
7.100;3.528793;1.202061
7.110;3.518492;1.183168
7.120;3.499758;1.160678
7.130;3.473721;1.134401
7.140;3.441591;1.104012
7.150;3.404507;1.069022
7.160;3.363391;1.028697
7.170;3.318837;0.981990
7.180;3.271048;0.927557
7.190;3.219894;0.863921
7.200;3.165140;0.789792
7.210;3.106845;0.704517
7.220;3.045821;0.608569
7.230;2.983978;0.503921
7.240;2.924360;0.394057
7.250;2.870759;0.283481
7.260;2.826956;0.176725
7.270;2.795826;0.077187
7.280;2.778677;-0.013728
7.290;2.775095;-0.096766
7.300;2.783347;-0.174222
7.310;2.801119;-0.248858
7.320;2.826259;-0.322815
7.330;2.857289;-0.396930
7.340;2.893550;-0.470656
7.350;2.935054;-0.542508
7.360;2.982163;-0.610774
7.370;3.035257;-0.674170
7.380;3.094485;-0.732198
7.390;3.159597;-0.785158
7.400;3.229855;-0.833913
7.410;3.304025;-0.879609
7.420;3.380487;-0.923452
7.430;3.457437;-0.966576
7.440;3.533122;-1.009889
7.450;3.606002;-1.053863
7.460;3.674823;-1.098350
7.470;3.738608;-1.142594
7.480;3.796611;-1.185527
7.490;3.848291;-1.226231
7.500;3.893314;-1.264321
7.510;3.931610;-1.300086
7.520;3.963512;-1.334351
7.530;3.989905;-1.368180
7.540;4.012279;-1.402558
7.550;4.032588;-1.438156
7.560;4.052902;-1.475200
7.570;4.075009;-1.513401
7.580;4.100138;-1.551927
7.590;4.128899;-1.589440
7.600;4.161450;-1.624241
7.610;4.197757;-1.654547
7.620;4.237839;-1.678868
7.630;4.281864;-1.696328
7.640;4.330097;-1.706798
7.650;4.382750;-1.710769
7.660;4.439859;-1.709060
7.670;4.501269;-1.702497
7.680;4.566700;-1.691712
7.690;4.635838;-1.677065
7.700;4.708358;-1.658642
7.710;4.783904;-1.636288
7.720;4.862038;-1.609646
7.730;4.942224;-1.578223
7.740;5.023855;-1.541434
7.750;5.106330;-1.498629
7.760;5.189136;-1.449145
7.770;5.271905;-1.392421
7.780;5.354379;-1.328170
7.790;5.436269;-1.256522
7.800;5.517096;-1.178044
7.810;5.596081;-1.093603
7.820;5.672136;-1.004119
7.830;5.743973;-0.910332
7.840;5.810279;-0.812719
7.850;5.869936;-0.711625
7.860;5.922211;-0.607537
7.870;5.966865;-0.501332
7.880;6.004129;-0.394310
7.890;6.034561;-0.287954
7.900;6.058837;-0.183503
7.910;6.077546;-0.081548
7.920;6.091025;0.018190
7.930;6.099234;0.116832
7.940;6.101718;0.216112
7.950;6.097658;0.318028
7.960;6.086049;0.424433
7.970;6.065966;0.536618
7.980;6.036860;0.654926
7.990;5.998795;0.778498
8.000;5.952555;0.905247
8.010;5.899587;1.032120
8.020;5.841815;1.155630
8.030;5.781374;1.272570
8.040;5.720342;1.380658
8.050;5.660507;1.478930
8.060;5.603222;1.567746
8.070;5.549415;1.648440
8.080;5.499767;1.722750
8.090;5.454987;1.792220
8.100;5.416058;1.857769
8.110;5.384335;1.919540
8.120;5.361445;1.977100
8.130;5.349025;2.029852
