Time[s];COPx[cm];COPy[cm]
0.010;-0.886179;-0.753290
0.020;-0.851148;-0.769585
0.030;-0.819939;-0.785014
0.040;-0.795594;-0.798948
0.050;-0.779721;-0.811113
0.060;-0.772152;-0.821597
0.070;-0.771005;-0.830748
0.080;-0.773142;-0.839006
0.090;-0.774959;-0.846716
0.100;-0.773327;-0.853983
0.110;-0.766449;-0.860612
0.120;-0.754348;-0.866133
0.130;-0.738839;-0.869929
0.140;-0.722948;-0.871442
0.150;-0.709973;-0.870391
0.160;-0.702440;-0.866927
0.170;-0.701309;-0.861637
0.180;-0.705683;-0.855370
0.190;-0.713152;-0.848960
0.200;-0.720635;-0.842936
0.210;-0.725433;-0.837352
0.220;-0.726087;-0.831765
0.230;-0.722776;-0.825383
0.240;-0.717121;-0.817334
0.250;-0.711503;-0.806986
0.260;-0.708128;-0.794213
0.270;-0.708124;-0.779482
0.280;-0.710971;-0.763738
0.290;-0.714453;-0.748141
0.300;-0.715219;-0.733750
0.310;-0.709827;-0.721261
0.320;-0.695952;-0.710848
0.330;-0.673337;-0.702141
0.340;-0.644103;-0.694366
0.350;-0.612278;-0.686636
0.360;-0.582668;-0.678323
0.370;-0.559442;-0.669348
0.380;-0.544866;-0.660271
0.390;-0.538656;-0.652106
0.400;-0.538118;-0.645927
0.410;-0.539071;-0.642444
0.420;-0.537206;-0.641687
0.430;-0.529454;-0.642963
0.440;-0.514918;-0.645086
0.450;-0.495064;-0.646799
0.460;-0.473100;-0.647198
0.470;-0.452766;-0.645977
0.480;-0.436894;-0.643417
0.490;-0.426263;-0.640133
0.500;-0.419145;-0.636733
0.510;-0.411752;-0.633554
0.520;-0.399431;-0.630612
0.530;-0.378198;-0.627754
0.540;-0.346061;-0.624939
0.550;-0.303704;-0.622460
0.560;-0.254360;-0.620986
0.570;-0.203006;-0.621359
0.580;-0.155173;-0.624226
0.590;-0.115717;-0.629689
0.600;-0.087782;-0.637144
0.610;-0.072150;-0.645399
0.620;-0.067116;-0.653013
0.630;-0.068975;-0.658722
0.640;-0.073043;-0.661794
0.650;-0.074961;-0.662219
0.660;-0.071902;-0.660726
0.670;-0.063337;-0.658688
0.680;-0.051119;-0.657966
0.690;-0.038847;-0.660742
0.700;-0.030695;-0.669263
0.710;-0.030035;-0.685446
0.720;-0.038307;-0.710365
0.730;-0.054525;-0.743769
0.740;-0.075594;-0.783868
0.750;-0.097333;-0.827533
0.760;-0.115828;-0.870905
0.770;-0.128638;-0.910198
0.780;-0.135477;-0.942456
0.790;-0.138169;-0.966041
0.800;-0.139905;-0.980788
0.810;-0.144028;-0.987870
0.820;-0.152765;-0.989457
0.830;-0.166401;-0.988260
0.840;-0.183188;-0.987035
0.850;-0.199987;-0.988099
0.860;-0.213344;-0.992875
0.870;-0.220583;-1.001572
0.880;-0.220608;-1.013098
0.890;-0.214223;-1.025323
0.900;-0.203922;-1.035643
0.910;-0.193208;-1.041702
0.920;-0.185599;-1.042017
0.930;-0.183628;-1.036326
0.940;-0.188196;-1.025566
0.950;-0.198505;-1.011512
0.960;-0.212556;-0.996194
0.970;-0.227965;-0.981278
0.980;-0.242737;-0.967601
0.990;-0.255743;-0.955030
1.000;-0.266793;-0.942655
1.010;-0.276408;-0.929268
1.020;-0.285433;-0.913904
1.030;-0.294653;-0.896254
1.040;-0.304539;-0.876774
1.050;-0.315152;-0.856484
1.060;-0.326225;-0.836573
1.070;-0.337335;-0.817975
1.080;-0.348153;-0.801089
1.090;-0.358698;-0.785699
1.100;-0.369533;-0.771118
1.110;-0.381812;-0.756493
1.120;-0.397104;-0.741164
1.130;-0.416986;-0.724951
1.140;-0.442496;-0.708245
1.150;-0.473623;-0.691890
1.160;-0.509013;-0.676879
1.170;-0.546047;-0.664000
1.180;-0.581367;-0.653513
1.190;-0.611754;-0.645002
1.200;-0.635105;-0.637460
1.210;-0.651137;-0.629625
1.220;-0.661497;-0.620475
1.230;-0.669171;-0.609696
1.240;-0.677394;-0.597889
1.250;-0.688472;-0.586438
1.260;-0.702955;-0.577038
1.270;-0.719480;-0.571108
1.280;-0.735282;-0.569328
1.290;-0.747170;-0.571450
1.300;-0.752629;-0.576425
1.310;-0.750672;-0.582709
1.320;-0.742216;-0.588644
1.330;-0.729856;-0.592790
1.340;-0.717132;-0.594170
1.350;-0.707492;-0.592401
1.360;-0.703292;-0.587739
1.370;-0.705141;-0.581022
1.380;-0.711837;-0.573509
1.390;-0.720874;-0.566580
1.400;-0.729309;-0.561323
1.410;-0.734659;-0.558075
1.420;-0.735505;-0.556070
1.430;-0.731662;-0.553367
1.440;-0.723933;-0.547197
1.450;-0.713655;-0.534753
1.460;-0.702244;-0.514249
1.470;-0.690883;-0.485951
1.480;-0.680351;-0.452841
1.490;-0.670910;-0.420588
1.500;-0.662205;-0.396618
1.510;-0.653251;-0.388346
1.520;-0.642661;-0.401006
1.530;-0.629162;-0.435825
1.540;-0.612242;-0.489280
1.550;-0.592596;-0.553789
1.560;-0.572068;-0.619559
1.570;-0.553022;-0.676973
1.580;-0.537388;-0.718756
1.590;-0.525821;-0.741359
1.600;-0.517416;-0.745237
1.610;-0.510144;-0.734022
1.620;-0.501829;-0.712921
1.630;-0.491208;-0.686946
1.640;-0.478575;-0.659613
1.650;-0.465770;-0.632502
1.660;-0.455561;-0.605664
1.670;-0.450741;-0.578508
1.680;-0.453257;-0.550659
1.690;-0.463617;-0.522445
1.700;-0.480686;-0.494911
1.710;-0.501875;-0.469509
1.720;-0.523715;-0.447670
1.730;-0.542665;-0.430434
1.740;-0.555992;-0.418207
1.750;-0.562463;-0.410694
1.760;-0.562669;-0.406964
1.770;-0.558884;-0.405688
1.780;-0.554461;-0.405482
1.790;-0.552892;-0.405306
1.800;-0.556802;-0.404787
1.810;-0.567162;-0.404343
1.820;-0.583030;-0.405007
1.830;-0.601932;-0.407971
1.840;-0.620765;-0.414004
1.850;-0.636884;-0.423030
1.860;-0.648956;-0.434102
1.870;-0.657291;-0.445822
1.880;-0.663594;-0.456997
1.890;-0.670320;-0.467210
1.900;-0.679886;-0.476981
1.910;-0.693980;-0.487443
1.920;-0.713108;-0.499688
1.930;-0.736448;-0.514115
1.940;-0.762021;-0.530092
1.950;-0.787169;-0.546087
1.960;-0.809254;-0.560214
1.970;-0.826417;-0.570923
1.980;-0.838169;-0.577513
1.990;-0.845566;-0.580265
2.000;-0.850812;-0.580190
2.010;-0.856396;-0.578532
2.020;-0.864063;-0.576266
2.030;-0.874043;-0.573803
2.040;-0.884849;-0.571014
2.050;-0.893759;-0.567531
2.060;-0.897810;-0.563138
2.070;-0.894916;-0.558081
2.080;-0.884695;-0.553123
2.090;-0.868693;-0.549338
2.100;-0.849953;-0.547697
2.110;-0.832138;-0.548648
2.120;-0.818535;-0.551926
2.130;-0.811261;-0.556674
2.140;-0.810860;-0.561828
2.150;-0.816357;-0.566528
2.160;-0.825661;-0.570340
2.170;-0.836212;-0.573204
2.180;-0.845688;-0.575194
2.190;-0.852626;-0.576278
2.200;-0.856778;-0.576239
2.210;-0.859090;-0.574792
2.220;-0.861278;-0.571838
2.230;-0.865144;-0.567702
2.240;-0.871855;-0.563224
2.250;-0.881457;-0.559621
2.260;-0.892772;-0.558142
2.270;-0.903732;-0.559643
2.280;-0.911992;-0.564254
2.290;-0.915658;-0.571264
2.300;-0.913895;-0.579296
2.310;-0.907252;-0.586711
2.320;-0.897605;-0.592122
2.330;-0.887706;-0.594848
2.340;-0.880427;-0.595165
2.350;-0.877911;-0.594235
2.360;-0.880918;-0.593740
2.370;-0.888581;-0.595317
2.380;-0.898677;-0.599984
2.390;-0.908328;-0.607764
2.400;-0.914890;-0.617636
2.410;-0.916763;-0.627825
2.420;-0.913830;-0.636341
2.430;-0.907434;-0.641569
2.440;-0.899944;-0.642714
2.450;-0.894118;-0.639918
2.460;-0.892494;-0.634049
2.470;-0.896951;-0.626262
2.480;-0.908462;-0.617552
2.490;-0.927003;-0.608456
2.500;-0.951567;-0.598987
2.510;-0.980274;-0.588766
2.520;-1.010622;-0.577221
2.530;-1.039918;-0.563768
2.540;-1.065856;-0.547894
2.550;-1.087117;-0.529183
2.560;-1.103776;-0.507348
2.570;-1.117326;-0.482352
2.580;-1.130223;-0.454595
2.590;-1.145059;-0.425114
2.600;-1.163633;-0.395654
2.610;-1.186243;-0.368555
2.620;-1.211468;-0.346406
2.630;-1.236552;-0.331543
2.640;-1.258272;-0.325524
2.650;-1.273958;-0.328729
2.660;-1.282281;-0.340247
2.670;-1.283480;-0.358086
2.680;-1.279000;-0.379680
2.690;-1.270741;-0.402534
2.700;-1.260289;-0.424818
2.710;-1.248461;-0.445718
2.720;-1.235296;-0.465460
2.730;-1.220392;-0.484997
2.740;-1.203380;-0.505525
2.750;-1.184304;-0.528011
2.760;-1.163766;-0.552901
2.770;-1.142801;-0.580072
2.780;-1.122525;-0.608978
2.790;-1.103700;-0.638925
2.800;-1.086367;-0.669315
2.810;-1.069674;-0.699771
2.820;-1.051964;-0.730112
2.830;-1.031116;-0.760229
2.840;-1.005057;-0.789982
2.850;-0.972356;-0.819183
2.860;-0.932743;-0.847638
2.870;-0.887444;-0.875194
2.880;-0.839189;-0.901754
2.890;-0.791820;-0.927246
2.900;-0.749509;-0.951541
2.910;-0.715784;-0.974320
2.920;-0.692684;-0.994953
2.930;-0.680347;-1.012470
2.940;-0.677193;-1.025738
2.950;-0.680615;-1.033864
2.960;-0.687894;-1.036679
2.970;-0.696952;-1.035105
2.980;-0.706712;-1.031190
2.990;-0.716989;-1.027766
3.000;-0.728003;-1.027817
3.010;-0.739736;-1.033727
3.020;-0.751390;-1.046667
3.030;-0.761189;-1.066300
3.040;-0.766702;-1.090892
3.050;-0.765642;-1.117772
3.060;-0.756887;-1.143995
3.070;-0.741304;-1.167007
3.080;-0.721985;-1.185137
3.090;-0.703692;-1.197819
3.100;-0.691632;-1.205495
3.110;-0.689936;-1.209305
3.120;-0.700353;-1.210703
3.130;-0.721633;-1.211143
3.140;-0.749829;-1.211951
3.150;-0.779481;-1.214342
3.160;-0.805274;-1.219439
3.170;-0.823617;-1.228139
3.180;-0.833608;-1.240817
3.190;-0.837075;-1.257011
3.200;-0.837716;-1.275359
3.210;-0.839690;-1.293928
3.220;-0.846207;-1.310855
3.230;-0.858619;-1.325023
3.240;-0.876284;-1.336446
3.250;-0.897184;-1.346187
3.260;-0.918987;-1.355851
3.270;-0.940120;-1.366902
3.280;-0.960424;-1.380113
3.290;-0.981126;-1.395374
3.300;-1.004168;-1.411901
3.310;-1.031175;-1.428748
3.320;-1.062561;-1.445401
3.330;-1.097160;-1.462238
3.340;-1.132599;-1.480689
3.350;-1.166260;-1.503016
3.360;-1.196443;-1.531756
3.370;-1.223199;-1.568994
3.380;-1.248424;-1.615662
3.390;-1.275124;-1.671087
3.400;-1.306086;-1.732945
3.410;-1.342453;-1.797715
3.420;-1.382763;-1.861514
3.430;-1.422872;-1.921031
3.440;-1.456917;-1.974217
3.450;-1.479019;-2.020466
3.460;-1.485125;-2.060272
3.470;-1.474309;-2.094531
3.480;-1.449063;-2.123810
3.490;-1.414555;-2.147889
3.500;-1.377196;-2.165792
3.510;-1.342977;-2.176286
3.520;-1.316063;-2.178592
3.530;-1.297966;-2.172963
3.540;-1.287479;-2.160793
3.550;-1.281359;-2.144202
3.560;-1.275536;-2.125326
3.570;-1.266464;-2.105641
3.580;-1.252196;-2.085638
3.590;-1.232836;-2.064924
3.600;-1.210290;-2.042675
3.610;-1.187445;-2.018187
3.620;-1.167120;-1.991302
3.630;-1.151129;-1.962540
3.640;-1.139788;-1.932934
3.650;-1.132002;-1.903656
3.660;-1.125928;-1.875592
3.670;-1.119927;-1.849027
3.680;-1.113432;-1.823557
3.690;-1.107332;-1.798285
3.700;-1.103670;-1.772209
3.710;-1.104786;-1.744648
3.720;-1.112239;-1.715484
3.730;-1.125979;-1.685101
3.740;-1.144104;-1.654075
3.750;-1.163292;-1.622808
3.760;-1.179777;-1.591343
3.770;-1.190506;-1.559442
3.780;-1.194077;-1.526877
3.790;-1.191101;-1.493721
3.800;-1.183890;-1.460466
3.810;-1.175593;-1.427915
3.820;-1.169142;-1.396897
3.830;-1.166401;-1.367976
3.840;-1.167792;-1.341257
3.850;-1.172462;-1.316328
3.860;-1.178827;-1.292346
3.870;-1.185227;-1.268234
3.880;-1.190460;-1.242943
3.890;-1.194061;-1.215693
3.900;-1.196328;-1.186136
3.910;-1.198125;-1.154383
3.920;-1.200546;-1.120928
3.930;-1.204536;-1.086466
3.940;-1.210555;-1.051656
3.950;-1.218401;-1.016907
3.960;-1.227226;-0.982275
3.970;-1.235776;-0.947577
3.980;-1.242784;-0.912673
3.990;-1.247422;-0.877797
4.000;-1.249650;-0.843724
4.010;-1.250300;-0.811622
4.020;-1.250835;-0.782624
4.030;-1.252822;-0.757330
4.040;-1.257316;-0.735541
4.050;-1.264384;-0.716385
4.060;-1.272958;-0.698753
4.070;-1.281108;-0.681831
4.080;-1.286616;-0.665473
4.090;-1.287682;-0.650247
4.100;-1.283522;-0.637147
4.110;-1.274664;-0.627116
4.120;-1.262860;-0.620568
4.130;-1.250609;-0.617128
4.140;-1.240435;-0.615665
4.150;-1.234139;-0.614642
4.160;-1.232254;-0.612613
4.170;-1.233883;-0.608681
4.180;-1.236968;-0.602715
4.190;-1.238926;-0.595254
4.200;-1.237435;-0.587161
4.210;-1.231114;-0.579189
4.220;-1.219916;-0.571657
4.230;-1.205117;-0.564337
4.240;-1.188967;-0.556545
4.250;-1.174109;-0.547377
4.260;-1.162926;-0.536000
4.270;-1.156927;-0.521934
4.280;-1.156314;-0.505263
4.290;-1.159852;-0.486727
4.300;-1.165127;-0.467621
4.310;-1.169154;-0.449494
4.320;-1.169162;-0.433704
4.330;-1.163293;-0.420952
4.340;-1.150986;-0.411002
4.350;-1.132919;-0.402716
4.360;-1.110574;-0.394458
4.370;-1.085614;-0.384672
4.380;-1.059301;-0.372427
4.390;-1.032141;-0.357682
4.400;-1.003862;-0.341230
4.410;-0.973702;-0.324398
4.420;-0.940939;-0.308656
4.430;-0.905499;-0.295283
4.440;-0.868412;-0.285176
4.450;-0.831912;-0.278846
4.460;-0.799080;-0.276551
4.470;-0.773094;-0.278459
4.480;-0.756323;-0.284737
4.490;-0.749559;-0.295505
4.500;-0.751673;-0.310717
4.510;-0.759820;-0.330037
4.520;-0.770179;-0.352806
4.530;-0.778993;-0.378091
4.540;-0.783620;-0.404790
4.550;-0.783263;-0.431782
4.560;-0.779137;-0.458044
4.570;-0.774014;-0.482718
4.580;-0.771311;-0.505146
4.590;-0.774046;-0.524916
4.600;-0.784024;-0.541990
4.610;-0.801490;-0.556894
4.620;-0.825319;-0.570886
4.630;-0.853613;-0.585926
4.640;-0.884469;-0.604358
4.650;-0.916633;-0.628323
4.660;-0.949810;-0.659076
4.670;-0.984501;-0.696466
4.680;-1.021438;-0.738800
4.690;-1.060883;-0.783172
4.700;-1.102147;-0.826148
4.710;-1.143618;-0.864587
4.720;-1.183289;-0.896355
4.730;-1.219593;-0.920739
4.740;-1.252165;-0.938481
4.750;-1.282212;-0.951443
4.760;-1.312321;-0.961983
4.770;-1.345728;-0.972244
4.780;-1.385239;-0.983557
4.790;-1.432199;-0.996157
4.800;-1.485884;-1.009309
4.810;-1.543583;-1.021763
4.820;-1.601361;-1.032322
4.830;-1.655210;-1.040234
4.840;-1.702161;-1.045298
4.850;-1.740993;-1.047669
4.860;-1.772367;-1.047540
4.870;-1.798419;-1.044872
4.880;-1.822007;-1.039313
4.890;-1.845844;-1.030369
4.900;-1.871787;-1.017710
4.910;-1.900435;-1.001454
4.920;-1.931112;-0.982259
4.930;-1.962170;-0.961175
4.940;-1.991492;-0.939376
4.950;-2.017078;-0.917931
4.960;-2.037585;-0.897701
4.970;-2.052706;-0.879345
4.980;-2.063264;-0.863333
4.990;-2.070970;-0.849933
5.000;-2.077930;-0.839137
5.010;-2.086053;-0.830610
5.020;-2.096544;-0.823731
5.030;-2.109624;-0.817751
5.040;-2.124529;-0.812019
5.050;-2.139755;-0.806158
5.060;-2.153468;-0.800107
5.070;-2.163989;-0.794002
5.080;-2.170264;-0.787968
5.090;-2.172206;-0.781943
5.100;-2.170802;-0.775629
5.110;-2.167899;-0.768620
5.120;-2.165721;-0.760641
5.130;-2.166203;-0.751771
5.140;-2.170333;-0.742570
5.150;-2.177684;-0.734079
5.160;-2.186299;-0.727689
5.170;-2.193019;-0.724886
5.180;-2.194202;-0.726904
5.190;-2.186688;-0.734377
5.200;-2.168755;-0.747113
5.210;-2.140782;-0.764097
5.220;-2.105381;-0.783725
5.230;-2.066907;-0.804204
5.240;-2.030414;-0.824014
5.250;-2.000342;-0.842265
5.260;-1.979321;-0.858866
5.270;-1.967493;-0.874428
5.280;-1.962609;-0.889936
5.290;-1.960888;-0.906311
5.300;-1.958327;-0.924003
5.310;-1.952007;-0.942763
5.320;-1.940965;-0.961671
5.330;-1.926347;-0.979435
5.340;-1.910840;-0.994836
5.350;-1.897583;-1.007164
5.360;-1.888956;-1.016418
5.370;-1.885670;-1.023175
5.380;-1.886495;-1.028179
5.390;-1.888683;-1.031854
5.400;-1.888926;-1.033995
5.410;-1.884459;-1.033823
5.420;-1.873927;-1.030345
5.430;-1.857720;-1.022878
5.440;-1.837693;-1.011467
5.450;-1.816405;-0.997024
5.460;-1.796197;-0.981142
5.470;-1.778463;-0.965651
5.480;-1.763377;-0.952120
5.490;-1.750105;-0.941492
5.500;-1.737340;-0.933984
5.510;-1.723899;-0.929258
5.520;-1.709185;-0.926773
5.530;-1.693383;-0.926109
5.540;-1.677375;-0.927145
5.550;-1.662420;-0.930009
5.560;-1.649728;-0.934855
5.570;-1.640056;-0.941568
5.580;-1.633459;-0.949541
5.590;-1.629251;-0.957619
5.600;-1.626213;-0.964235
5.610;-1.622980;-0.967710
5.620;-1.618494;-0.966629
5.630;-1.612370;-0.960196
5.640;-1.605025;-0.948490
5.650;-1.597509;-0.932530
5.660;-1.591076;-0.914086
5.670;-1.586643;-0.895282
5.680;-1.584324;-0.878082
5.690;-1.583245;-0.863851
5.700;-1.581689;-0.853129
5.710;-1.577566;-0.845668
5.720;-1.569033;-0.840627
5.730;-1.555092;-0.836831
5.740;-1.535971;-0.833006
5.750;-1.513155;-0.827976
5.760;-1.488985;-0.820841
5.770;-1.465935;-0.811135
5.780;-1.445768;-0.798918
5.790;-1.428921;-0.784762
5.800;-1.414366;-0.769547
5.810;-1.400046;-0.754151
5.820;-1.383697;-0.739148
5.830;-1.363761;-0.724658
5.840;-1.340054;-0.710393
5.850;-1.313989;-0.695834
5.860;-1.288261;-0.680436
5.870;-1.266096;-0.663771
5.880;-1.250272;-0.645572
5.890;-1.242238;-0.625664
5.900;-1.241609;-0.603871
5.910;-1.246199;-0.579947
5.920;-1.252603;-0.553586
5.930;-1.257165;-0.524483
5.940;-1.257050;-0.492442
5.950;-1.251081;-0.457503
5.960;-1.240099;-0.420118
5.970;-1.226684;-0.381296
5.980;-1.214339;-0.342665
5.990;-1.206340;-0.306351
6.000;-1.204625;-0.274673
6.010;-1.209075;-0.249737
6.020;-1.217479;-0.233007
6.030;-1.226214;-0.225010
6.040;-1.231390;-0.225272
6.050;-1.230070;-0.232526
6.060;-1.221111;-0.245132
6.070;-1.205418;-0.261539
6.080;-1.185541;-0.280650
6.090;-1.164863;-0.302000
6.100;-1.146636;-0.325709
6.110;-1.133180;-0.352247
6.120;-1.125438;-0.382042
6.130;-1.122942;-0.415086
6.140;-1.124161;-0.450679
6.150;-1.127093;-0.487423
6.160;-1.129946;-0.523445
6.170;-1.131685;-0.556752
6.180;-1.132282;-0.585590
6.190;-1.132605;-0.608750
6.200;-1.134025;-0.625748
6.210;-1.137884;-0.636879
6.220;-1.145003;-0.643129
6.230;-1.155350;-0.645978
6.240;-1.167915;-0.647151
6.250;-1.180869;-0.648368
6.260;-1.191953;-0.651086
6.270;-1.199059;-0.656275
6.280;-1.200811;-0.664284
6.290;-1.196972;-0.674848
6.300;-1.188548;-0.687231
6.310;-1.177536;-0.700422
6.320;-1.166422;-0.713333
6.330;-1.157574;-0.724969
6.340;-1.152727;-0.734572
6.350;-1.152683;-0.741714
6.360;-1.157269;-0.746306
6.370;-1.165505;-0.748516
6.380;-1.175908;-0.748651
6.390;-1.186844;-0.747041
6.400;-1.196877;-0.743974
6.410;-1.205043;-0.739660
6.420;-1.211004;-0.734207
6.430;-1.215057;-0.727626
6.440;-1.218002;-0.719935
6.450;-1.220882;-0.711341
6.460;-1.224627;-0.702409
6.470;-1.229691;-0.694078
6.480;-1.235801;-0.687402
6.490;-1.241981;-0.683130
6.500;-1.246912;-0.681325
6.510;-1.249502;-0.681272
6.520;-1.249428;-0.681699
6.530;-1.247397;-0.681216
6.540;-1.245012;-0.678717
6.550;-1.244306;-0.673634
6.560;-1.247108;-0.665986
6.570;-1.254481;-0.656280
6.580;-1.266375;-0.645316
6.590;-1.281581;-0.633981
6.600;-1.297971;-0.623063
6.610;-1.312964;-0.613101
6.620;-1.324144;-0.604280
6.630;-1.329897;-0.596372
6.640;-1.329882;-0.588752
6.650;-1.325179;-0.580545
6.660;-1.317992;-0.570877
6.670;-1.310960;-0.559172
6.680;-1.306293;-0.545385
6.690;-1.305037;-0.530063
6.700;-1.306761;-0.514191
6.710;-1.309758;-0.498868
6.720;-1.311670;-0.484943
6.730;-1.310312;-0.472777
6.740;-1.304434;-0.462274
6.750;-1.294221;-0.453145
6.760;-1.281376;-0.445290
6.770;-1.268710;-0.439044
6.780;-1.259333;-0.435142
6.790;-1.255658;-0.434387
6.800;-1.258558;-0.437193
6.810;-1.266945;-0.443224
6.820;-1.277950;-0.451333
6.830;-1.287668;-0.459822
6.840;-1.292292;-0.466904
6.850;-1.289290;-0.471186
6.860;-1.278255;-0.471994
6.870;-1.261122;-0.469508
6.880;-1.241662;-0.464690
6.890;-1.224410;-0.459061
6.900;-1.213324;-0.454372
6.910;-1.210610;-0.452214
6.920;-1.216045;-0.453640
6.930;-1.227010;-0.458921
6.940;-1.239225;-0.467540
6.950;-1.247973;-0.478419
6.960;-1.249490;-0.490256
6.970;-1.242103;-0.501841
6.980;-1.226792;-0.512218
6.990;-1.206996;-0.520729
7.000;-1.187687;-0.526995
7.010;-1.174002;-0.530893
7.020;-1.169830;-0.532545
7.030;-1.176800;-0.532270
7.040;-1.193989;-0.530488
7.050;-1.218427;-0.527571
7.060;-1.246197;-0.523741
7.070;-1.273729;-0.519075
7.080;-1.298841;-0.513626
7.090;-1.321183;-0.507604
7.100;-1.342032;-0.501459
7.110;-1.363549;-0.495829
7.120;-1.387799;-0.491331
7.130;-1.415872;-0.488329
7.140;-1.447355;-0.486796
7.150;-1.480334;-0.486395
7.160;-1.511881;-0.486715
7.170;-1.538865;-0.487509
7.180;-1.558807;-0.488767
7.190;-1.570499;-0.490563
7.200;-1.574220;-0.492792
7.210;-1.571518;-0.494983
7.220;-1.564685;-0.496318
7.230;-1.556115;-0.495891
7.240;-1.547715;-0.493090
7.250;-1.540536;-0.487877
7.260;-1.534736;-0.480798
7.270;-1.529866;-0.472711
7.280;-1.525355;-0.464419
7.290;-1.520977;-0.456417
7.300;-1.517092;-0.448894
7.310;-1.514567;-0.441923
7.320;-1.514388;-0.435688
7.330;-1.517106;-0.430585
7.340;-1.522345;-0.427139
7.350;-1.528617;-0.425777
7.360;-1.533593;-0.426595
7.370;-1.534776;-0.429230
7.380;-1.530335;-0.432873
7.390;-1.519766;-0.436442
7.400;-1.504153;-0.438890
7.410;-1.485900;-0.439554
7.420;-1.468021;-0.438445
7.430;-1.453171;-0.436359
7.440;-1.442682;-0.434709
7.450;-1.435927;-0.435115
7.460;-1.430259;-0.438881
7.470;-1.421675;-0.446551
7.480;-1.406035;-0.457756
7.490;-1.380479;-0.471385
7.500;-1.344520;-0.485998
7.510;-1.300461;-0.500303
7.520;-1.252957;-0.513502
7.530;-1.207885;-0.525436
7.540;-1.170807;-0.536505
7.550;-1.145482;-0.547425
7.560;-1.132841;-0.558915
7.570;-1.130755;-0.571422
7.580;-1.134689;-0.584980
7.590;-1.139050;-0.599229
7.600;-1.138821;-0.613551
7.610;-1.130973;-0.627241
7.620;-1.115228;-0.639667
7.630;-1.094013;-0.650382
7.640;-1.071637;-0.659165
7.650;-1.052945;-0.666005
7.660;-1.041817;-0.671052
7.670;-1.039976;-0.674562
7.680;-1.046503;-0.676841
