Time[s];COPx[cm];COPy[cm]
0.010;2.678574;-0.603926
0.020;2.689125;-0.594991
0.030;2.697849;-0.584874
0.040;2.703370;-0.572615
0.050;2.705050;-0.557774
0.060;2.703052;-0.540637
0.070;2.698177;-0.522266
0.080;2.691553;-0.504292
0.090;2.684272;-0.488491
0.100;2.677074;-0.476261
0.110;2.670187;-0.468208
0.120;2.663371;-0.463983
0.130;2.656111;-0.462421
0.140;2.647853;-0.461906
0.150;2.638188;-0.460837
0.160;2.626925;-0.458034
0.170;2.614101;-0.452994
0.180;2.599933;-0.445941
0.190;2.584720;-0.437696
0.200;2.568709;-0.429411
0.210;2.551918;-0.422252
0.220;2.534004;-0.417141
0.230;2.514227;-0.414622
0.240;2.491586;-0.414874
0.250;2.465105;-0.417835
0.260;2.434176;-0.423378
0.270;2.398829;-0.431495
0.280;2.359804;-0.442382
0.290;2.318426;-0.456406
0.300;2.276357;-0.473918
0.310;2.235367;-0.494975
0.320;2.197161;-0.519080
0.330;2.163264;-0.545063
0.340;2.134919;-0.571192
0.350;2.113009;-0.595510
0.360;2.098042;-0.616249
0.370;2.090192;-0.632203
0.380;2.089390;-0.642906
0.390;2.095397;-0.648637
0.400;2.107824;-0.650271
0.410;2.126100;-0.649059
0.420;2.149433;-0.646375
0.430;2.176834;-0.643500
0.440;2.207209;-0.641444
0.450;2.239521;-0.640855
0.460;2.272911;-0.642011
0.470;2.306755;-0.644910
0.480;2.340651;-0.649378
0.490;2.374374;-0.655141
0.500;2.407834;-0.661796
0.510;2.441056;-0.668707
0.520;2.474163;-0.674916
0.530;2.507349;-0.679174
0.540;2.540820;-0.680114
0.550;2.574740;-0.676542
0.560;2.609213;-0.667736
0.570;2.644283;-0.653641
0.580;2.679916;-0.634847
0.590;2.715938;-0.612346
0.600;2.751974;-0.587136
0.610;2.787447;-0.559826
0.620;2.821668;-0.530431
0.630;2.853987;-0.498411
0.640;2.883934;-0.462941
0.650;2.911323;-0.423277
0.660;2.936278;-0.379086
0.670;2.959198;-0.330635
0.680;2.980665;-0.278800
0.690;3.001279;-0.224906
0.700;3.021463;-0.170457
0.710;3.041282;-0.116851
0.720;3.060366;-0.065139
0.730;3.078024;-0.015872
0.740;3.093496;0.030946
0.750;3.106276;0.075779
0.760;3.116351;0.119381
0.770;3.124241;0.162538
0.780;3.130800;0.205827
0.790;3.136877;0.249434
0.800;3.142985;0.293098
0.810;3.149108;0.336154
0.820;3.154712;0.377651
0.830;3.158934;0.416501
0.840;3.160871;0.451620
0.850;3.159863;0.482049
0.860;3.155678;0.507091
0.870;3.148531;0.526447
0.880;3.138986;0.540341
0.890;3.127784;0.549543
0.900;3.115685;0.555266
0.910;3.103365;0.558960
0.920;3.091375;0.562072
0.930;3.080164;0.565835
0.940;3.070118;0.571108
0.950;3.061573;0.578260
0.960;3.054785;0.587137
0.970;3.049877;0.597100
0.980;3.046784;0.607158
0.990;3.045211;0.616151
1.000;3.044629;0.622967
1.010;3.044334;0.626756
1.020;3.043576;0.627135
1.030;3.041732;0.624314
1.040;3.038427;0.619070
1.050;3.033572;0.612501
1.060;3.027290;0.605589
1.070;3.019768;0.598741
1.080;3.011095;0.591526
1.090;3.001157;0.582758
1.100;2.989648;0.570938
1.110;2.976229;0.554895
1.120;2.960759;0.534359
1.130;2.943496;0.510262
1.140;2.925143;0.484602
1.150;2.906757;0.459926
1.160;2.889517;0.438581
1.170;2.874492;0.421994
1.180;2.862479;0.410223
1.190;2.853986;0.401934
1.200;2.849333;0.394838
1.210;2.848747;0.386449
1.220;2.852390;0.374901
1.230;2.860289;0.359541
1.240;2.872236;0.341069
1.250;2.887708;0.321159
1.260;2.905876;0.301740
1.270;2.925749;0.284215
1.280;2.946400;0.268953
1.290;2.967201;0.255210
1.300;2.987948;0.241439
1.310;3.008793;0.225822
1.320;3.030012;0.206836
1.330;3.051704;0.183730
1.340;3.073564;0.156827
1.350;3.094823;0.127528
1.360;3.114372;0.097996
1.370;3.131006;0.070565
1.380;3.143694;0.047049
1.390;3.151768;0.028199
1.400;3.155002;0.013495
1.410;3.153562;0.001339
1.420;3.147895;-0.010459
1.430;3.138581;-0.024076
1.440;3.126202;-0.041156
1.450;3.111226;-0.062515
1.460;3.093928;-0.088122
1.470;3.074341;-0.117318
1.480;3.052220;-0.149167
1.490;3.027048;-0.182765
1.500;2.998105;-0.217396
1.510;2.964679;-0.252495
1.520;2.926367;-0.287516
1.530;2.883397;-0.321822
1.540;2.836798;-0.354672
1.550;2.788303;-0.385277
1.560;2.740027;-0.412883
1.570;2.694001;-0.436815
1.580;2.651753;-0.456521
1.590;2.614059;-0.471646
1.600;2.580928;-0.482120
1.610;2.551815;-0.488222
1.620;2.525946;-0.490523
1.630;2.502602;-0.489685
1.640;2.481282;-0.486149
1.650;2.461714;-0.479875
1.660;2.443795;-0.470251
1.670;2.427499;-0.456240
1.680;2.412787;-0.436726
1.690;2.399515;-0.410920
1.700;2.387367;-0.378728
1.710;2.375829;-0.340982
1.720;2.364251;-0.299472
1.730;2.351983;-0.256728
1.740;2.338580;-0.215601
1.750;2.323988;-0.178746
1.760;2.308647;-0.148136
1.770;2.293417;-0.124719
1.780;2.279355;-0.108277
1.790;2.267411;-0.097538
1.800;2.258197;-0.090505
1.810;2.251931;-0.084926
1.820;2.248537;-0.078769
1.830;2.247858;-0.070538
1.840;2.249826;-0.059397
1.850;2.254536;-0.045135
1.860;2.262189;-0.028092
1.870;2.272966;-0.009119
1.880;2.286889;0.010466
1.890;2.303722;0.029003
1.900;2.322950;0.044787
1.910;2.343800;0.056455
1.920;2.365328;0.063326
1.930;2.386502;0.065505
1.940;2.406289;0.063696
1.950;2.423742;0.058824
1.960;2.438106;0.051648
1.970;2.448935;0.042550
1.980;2.456150;0.031527
1.990;2.459962;0.018339
2.000;2.460672;0.002700
2.010;2.458451;-0.015566
2.020;2.453217;-0.036420
2.030;2.444697;-0.059550
2.040;2.432631;-0.084366
2.050;2.417023;-0.110055
2.060;2.398292;-0.135723
2.070;2.377293;-0.160565
2.080;2.355220;-0.184002
2.090;2.333488;-0.205723
2.100;2.313638;-0.225643
2.110;2.297238;-0.243842
2.120;2.285742;-0.260522
2.130;2.280293;-0.275987
2.140;2.281522;-0.290657
2.150;2.289429;-0.305070
2.160;2.303415;-0.319862
2.170;2.322465;-0.335675
2.180;2.345393;-0.352973
2.190;2.371048;-0.371864
2.200;2.398400;-0.391994
2.210;2.426478;-0.412572
2.220;2.454241;-0.432518
2.230;2.480465;-0.450686
2.240;2.503750;-0.466105
2.250;2.522655;-0.478148
2.260;2.535929;-0.486559
2.270;2.542720;-0.491336
2.280;2.542695;-0.492554
2.290;2.536003;-0.490253
2.300;2.523154;-0.484449
2.310;2.504844;-0.475268
2.320;2.481789;-0.463087
2.330;2.454596;-0.448557
2.340;2.423706;-0.432438
2.350;2.389417;-0.415319
2.360;2.352048;-0.397400
2.370;2.312167;-0.378485
2.380;2.270807;-0.358202
2.390;2.229524;-0.336339
2.400;2.190253;-0.313139
2.410;2.155002;-0.289389
2.420;2.125496;-0.266254
2.430;2.102909;-0.244887
2.440;2.087756;-0.226000
2.450;2.079949;-0.209595
2.460;2.078943;-0.195023
2.470;2.083912;-0.181305
2.480;2.093885;-0.167584
2.490;2.107823;-0.153484
2.500;2.124654;-0.139284
2.510;2.143301;-0.125847
2.520;2.162715;-0.114359
2.530;2.181912;-0.105991
2.540;2.200015;-0.101634
2.550;2.216273;-0.101760
2.560;2.230095;-0.106396
2.570;2.241079;-0.115155
2.580;2.249037;-0.127311
2.590;2.253987;-0.141930
2.600;2.256098;-0.158067
2.610;2.255580;-0.174972
2.620;2.252594;-0.192237
2.630;2.247251;-0.209817
2.640;2.239739;-0.227950
2.650;2.230523;-0.247009
2.660;2.220436;-0.267356
2.670;2.210541;-0.289223
2.680;2.201809;-0.312650
2.690;2.194777;-0.337476
2.700;2.189399;-0.363369
2.710;2.185143;-0.389895
2.720;2.181276;-0.416601
2.730;2.177181;-0.443137
2.740;2.172555;-0.469392
2.750;2.167399;-0.495603
2.760;2.161836;-0.522379
2.770;2.155847;-0.550607
2.780;2.149047;-0.581238
2.790;2.140590;-0.615036
2.800;2.129235;-0.652384
2.810;2.113585;-0.693203
2.820;2.092472;-0.736966
2.830;2.065334;-0.782717
2.840;2.032461;-0.829067
2.850;1.994991;-0.874206
2.860;1.954670;-0.916008
2.870;1.913449;-0.952254
2.880;1.873081;-0.980940
2.890;1.834823;-1.000574
2.900;1.799305;-1.010411
2.910;1.766594;-1.010597
2.920;1.736427;-1.002167
2.930;1.708544;-0.986883
2.940;1.682999;-0.966915
2.950;1.660289;-0.944499
2.960;1.641235;-0.921664
2.970;1.626650;-0.900102
2.980;1.616956;-0.881159
2.990;1.611943;-0.865869
3.000;1.610772;-0.854954
3.010;1.612219;-0.848764
3.020;1.615044;-0.847211
3.030;1.618310;-0.849750
3.040;1.621510;-0.855495
3.050;1.624460;-0.863415
3.060;1.627014;-0.872568
3.070;1.628784;-0.882307
3.080;1.629012;-0.892402
3.090;1.626680;-0.903021
3.100;1.620789;-0.914554
3.110;1.610686;-0.927326
3.120;1.596265;-0.941321
3.130;1.577988;-0.956033
3.140;1.556726;-0.970527
3.150;1.533515;-0.983700
3.160;1.509324;-0.994612
3.170;1.484914;-1.002793
3.180;1.460818;-1.008421
3.190;1.437408;-1.012334
3.200;1.415014;-1.015840
3.210;1.394003;-1.020370
3.220;1.374806;-1.027053
3.230;1.357880;-1.036407
3.240;1.343665;-1.048278
3.250;1.332516;-1.062016
3.260;1.324616;-1.076780
3.270;1.319838;-1.091808
3.280;1.317613;-1.106571
3.290;1.316884;-1.120818
3.300;1.316204;-1.134561
3.310;1.313978;-1.148047
3.320;1.308782;-1.161718
3.330;1.299637;-1.176139
3.340;1.286145;-1.191842
3.350;1.268462;-1.209094
3.360;1.247155;-1.227620
3.370;1.223080;-1.246439
3.380;1.197324;-1.263898
3.390;1.171186;-1.277956
3.400;1.146099;-1.286644
3.410;1.123413;-1.288530
3.420;1.104068;-1.283008
3.430;1.088324;-1.270321
3.440;1.075737;-1.251335
3.450;1.065437;-1.227165
3.460;1.056591;-1.198795
3.470;1.048801;-1.166811
3.480;1.042265;-1.131349
3.490;1.037630;-1.092278
3.500;1.035645;-1.049536
3.510;1.036788;-1.003484
3.520;1.041032;-0.955086
3.530;1.047802;-0.905842
3.540;1.056113;-0.857448
3.550;1.064766;-0.811312
3.560;1.072574;-0.768094
3.570;1.078546;-0.727467
3.580;1.082029;-0.688189
3.590;1.082809;-0.648469
3.600;1.081141;-0.606498
3.610;1.077711;-0.560960
3.620;1.073493;-0.511391
3.630;1.069501;-0.458265
3.640;1.066494;-0.402788
3.650;1.064729;-0.346478
3.660;1.063878;-0.290673
3.670;1.063171;-0.236171
3.680;1.061718;-0.183139
3.690;1.058881;-0.131315
3.700;1.054543;-0.080409
3.710;1.049169;-0.030503
3.720;1.043672;0.017678
3.730;1.039140;0.062740
3.740;1.036523;0.102802
3.750;1.036390;0.135865
3.760;1.038821;0.160230
3.770;1.043472;0.174830
3.780;1.049764;0.179380
3.790;1.057094;0.174334
3.800;1.064976;0.160703
3.810;1.073052;0.139826
3.820;1.081009;0.113204
3.830;1.088462;0.082452
3.840;1.094918;0.049364
3.850;1.099866;0.016001
3.860;1.102957;-0.015333
3.870;1.104187;-0.042309
3.880;1.103943;-0.062965
3.890;1.102924;-0.076185
3.900;1.101982;-0.082064
3.910;1.101973;-0.082015
3.920;1.103665;-0.078544
3.930;1.107664;-0.074732
3.940;1.114384;-0.073613
3.950;1.124016;-0.077599
3.960;1.136538;-0.088109
3.970;1.151744;-0.105459
3.980;1.169279;-0.128967
3.990;1.188649;-0.157246
4.000;1.209221;-0.188548
4.010;1.230206;-0.221100
4.020;1.250687;-0.253382
4.030;1.269712;-0.284334
4.040;1.286446;-0.313491
4.050;1.300285;-0.341004
4.060;1.310893;-0.367544
4.070;1.318107;-0.394100
4.080;1.321783;-0.421740
4.090;1.321616;-0.451370
4.100;1.317022;-0.483548
4.110;1.307105;-0.518364
4.120;1.290763;-0.555425
4.130;1.266949;-0.593955
4.140;1.235064;-0.632984
4.150;1.195352;-0.671580
4.160;1.149169;-0.709039
4.170;1.098932;-0.745005
4.180;1.047756;-0.779470
4.190;0.998852;-0.812660
4.200;0.954904;-0.844809
4.210;0.917606;-0.875905
4.220;0.887493;-0.905522
4.230;0.864116;-0.932828
4.240;0.846473;-0.956798
4.250;0.833500;-0.976559
4.260;0.824445;-0.991735
4.270;0.819003;-1.002602
4.280;0.817224;-1.009969
4.290;0.819307;-1.014824
4.300;0.825414;-1.017941
4.310;0.835563;-1.019609
4.320;0.849587;-1.019543
4.330;0.867089;-1.017014
4.340;0.887354;-1.011151
4.350;0.909288;-1.001346
4.360;0.931453;-0.987602
4.370;0.952232;-0.970659
4.380;0.970090;-0.951819
4.390;0.983837;-0.932582
4.400;0.992817;-0.914284
4.410;0.996993;-0.897887
4.420;0.996904;-0.883988
4.430;0.993502;-0.872937
4.440;0.987892;-0.864948
4.450;0.981063;-0.860107
4.460;0.973693;-0.858344
4.470;0.966109;-0.859406
4.480;0.958408;-0.862919
4.490;0.950670;-0.868481
4.500;0.943147;-0.875756
4.510;0.936364;-0.884504
4.520;0.931107;-0.894541
4.530;0.928330;-0.905687
4.540;0.928993;-0.917744
4.550;0.933864;-0.930482
4.560;0.943282;-0.943602
4.570;0.956974;-0.956636
4.580;0.973998;-0.968852
4.590;0.992874;-0.979253
4.600;1.011884;-0.986739
4.610;1.029468;-0.990383
4.620;1.044580;-0.989730
4.630;1.056918;-0.984941
4.640;1.066952;-0.976727
4.650;1.075771;-0.966085
4.660;1.084798;-0.953923
4.670;1.095459;-0.940730
4.680;1.108902;-0.926391
4.690;1.125790;-0.910243
4.700;1.146194;-0.891350
4.710;1.169589;-0.868874
4.720;1.194997;-0.842385
4.730;1.221240;-0.811978
4.740;1.247242;-0.778156
4.750;1.272287;-0.741573
4.760;1.296138;-0.702828
4.770;1.319017;-0.662437
4.780;1.341449;-0.621012
4.790;1.364050;-0.579495
4.800;1.387328;-0.539279
4.810;1.411539;-0.502092
4.820;1.436625;-0.469685
4.830;1.462248;-0.443426
4.840;1.487891;-0.423938
4.850;1.513001;-0.410907
4.860;1.537086;-0.403124
4.870;1.559732;-0.398745
4.880;1.580528;-0.395717
4.890;1.598957;-0.392236
4.900;1.614341;-0.387137
4.910;1.625906;-0.380071
4.920;1.632955;-0.371426
4.930;1.635115;-0.362003
4.940;1.632568;-0.352565
4.950;1.626164;-0.343435
4.960;1.617361;-0.334293
4.970;1.607983;-0.324216
4.980;1.599847;-0.311958
4.990;1.594416;-0.296349
5.000;1.592562;-0.276697
5.010;1.594505;-0.253047
5.020;1.599915;-0.226219
5.030;1.608129;-0.197616
5.040;1.618409;-0.168878
5.050;1.630199;-0.141490
5.060;1.643302;-0.116477
5.070;1.657927;-0.094254
5.080;1.674557;-0.074678
5.090;1.693706;-0.057260
5.100;1.715637;-0.041479
5.110;1.740177;-0.027080
5.120;1.766723;-0.014230
5.130;1.794429;-0.003491
5.140;1.822471;0.004387
5.150;1.850254;0.008724
5.160;1.877439;0.009096
5.170;1.903822;0.005367
5.180;1.929138;-0.002409
5.190;1.952921;-0.014151
5.200;1.974467;-0.029851
5.210;1.992914;-0.049574
5.220;2.007411;-0.073375
5.230;2.017310;-0.101203
5.240;2.022313;-0.132878
5.250;2.022508;-0.168100
5.260;2.018290;-0.206468
5.270;2.010188;-0.247476
5.280;1.998676;-0.290521
5.290;1.984032;-0.334966
5.300;1.966295;-0.380270
5.310;1.945338;-0.426121
5.320;1.921028;-0.472452
5.330;1.893443;-0.519268
5.340;1.863100;-0.566305
5.350;1.831142;-0.612694
5.360;1.799379;-0.656859
5.370;1.770095;-0.696802
5.380;1.745638;-0.730748
5.390;1.727895;-0.757882
5.400;1.717865;-0.778827
5.410;1.715526;-0.795594
5.420;1.720036;-0.810975
5.430;1.730164;-0.827631
5.440;1.744752;-0.847247
5.450;1.763036;-0.870049
5.460;1.784727;-0.894810
5.470;1.809852;-0.919303
5.480;1.838430;-0.941047
5.490;1.870148;-0.958093
5.500;1.904169;-0.969616
5.510;1.939151;-0.976107
5.520;1.973467;-0.979152
5.530;2.005522;-0.980935
5.540;2.034091;-0.983631
5.550;2.058540;-0.988919
5.560;2.078851;-0.997707
5.570;2.095413;-1.010121
5.580;2.108663;-1.025674
5.590;2.118761;-1.043504
5.600;2.125444;-1.062607
5.610;2.128140;-1.082002
5.620;2.126245;-1.100871
5.630;2.119444;-1.118704
5.640;2.107921;-1.135448
5.650;2.092370;-1.151600
5.660;2.073802;-1.168179
5.670;2.053237;-1.186547
5.680;2.031444;-1.208107
5.690;2.008862;-1.233921
5.700;1.985728;-1.264311
5.710;1.962345;-1.298629
5.720;1.939319;-1.335299
5.730;1.917619;-1.372192
5.740;1.898432;-1.407203
5.750;1.882870;-1.438805
5.760;1.871694;-1.466376
5.770;1.865159;-1.490194
5.780;1.863046;-1.511142
5.790;1.864820;-1.530253
5.800;1.869829;-1.548305
5.810;1.877465;-1.565583
5.820;1.887249;-1.581895
5.830;1.898821;-1.596780
5.840;1.911869;-1.609779
5.850;1.926049;-1.620619
5.860;1.940942;-1.629217
5.870;1.956096;-1.635531
5.880;1.971143;-1.639369
5.890;1.985911;-1.640257
5.900;2.000482;-1.637494
5.910;2.015137;-1.630359
5.920;2.030225;-1.618395
5.930;2.045991;-1.601630
5.940;2.062477;-1.580654
5.950;2.079526;-1.556530
5.960;2.096918;-1.530602
5.970;2.114531;-1.504253
5.980;2.132444;-1.478712
5.990;2.150917;-1.454931
6.000;2.170287;-1.433545
6.010;2.190813;-1.414858
6.020;2.212519;-1.398850
6.030;2.235095;-1.385204
6.040;2.257877;-1.373389
6.050;2.279958;-1.362831
6.060;2.300384;-1.353138
6.070;2.318369;-1.344282
6.080;2.333458;-1.336665
6.090;2.345598;-1.330949
6.100;2.355120;-1.327668
6.110;2.362669;-1.326726
6.120;2.369090;-1.327015
6.130;2.375286;-1.326383
6.140;2.382036;-1.322041
6.150;2.389809;-1.311288
6.160;2.398637;-1.292260
6.170;2.408109;-1.264424
6.180;2.417537;-1.228656
6.190;2.426243;-1.186915
6.200;2.433880;-1.141692
6.210;2.440637;-1.095427
6.220;2.447268;-1.050085
6.230;2.454908;-1.006937
6.240;2.464762;-0.966544
6.250;2.477756;-0.928887
6.260;2.494277;-0.893556
6.270;2.514056;-0.859988
6.280;2.536242;-0.827697
6.290;2.559607;-0.796447
6.300;2.582824;-0.766337
6.310;2.604725;-0.737773
6.320;2.624458;-0.711326
6.330;2.641528;-0.687476
6.340;2.655749;-0.666315
6.350;2.667171;-0.647329
6.360;2.676020;-0.629417
6.370;2.682640;-0.611149
6.380;2.687424;-0.591153
6.390;2.690765;-0.568442
6.400;2.693053;-0.542565
6.410;2.694686;-0.513572
6.420;2.696060;-0.481895
6.430;2.697522;-0.448229
6.440;2.699329;-0.413474
6.450;2.701635;-0.378694
6.460;2.704512;-0.345027
6.470;2.707975;-0.313546
6.480;2.711951;-0.285132
6.490;2.716214;-0.260431
6.500;2.720306;-0.239908
6.510;2.723538;-0.223910
6.520;2.725128;-0.212638
6.530;2.724429;-0.205993
6.540;2.721177;-0.203379
6.550;2.715615;-0.203612
6.560;2.708433;-0.205042
6.570;2.700523;-0.205845
6.580;2.692664;-0.204353
6.590;2.685282;-0.199292
6.600;2.678391;-0.189900
6.610;2.671681;-0.175968
6.620;2.664677;-0.157832
6.630;2.656867;-0.136281
6.640;2.647774;-0.112352
6.650;2.636991;-0.087065
6.660;2.624234;-0.061174
6.670;2.609414;-0.035071
6.680;2.592706;-0.008874
6.690;2.574592;0.017337
6.700;2.555876;0.043221
6.710;2.537635;0.067970
6.720;2.521101;0.090290
6.730;2.507450;0.108602
6.740;2.497562;0.121365
6.750;2.491848;0.127386
6.760;2.490216;0.126032
6.770;2.492190;0.117260
6.780;2.497127;0.101544
6.790;2.504421;0.079753
6.800;2.513606;0.053093
6.810;2.524336;0.023096
6.820;2.536305;-0.008388
6.830;2.549170;-0.039289
6.840;2.562521;-0.067539
6.850;2.575897;-0.091398
6.860;2.588827;-0.109768
6.870;2.600873;-0.122381
6.880;2.611652;-0.129762
6.890;2.620824;-0.132996
6.900;2.628044;-0.133421
6.910;2.632944;-0.132377
6.920;2.635172;-0.131101
6.930;2.634517;-0.130732
6.940;2.631031;-0.132313
6.950;2.625092;-0.136695
6.960;2.617370;-0.144355
6.970;2.608692;-0.155233
6.980;2.599878;-0.168695
6.990;2.591577;-0.183679
7.000;2.584170;-0.199003
7.010;2.577743;-0.213734
7.020;2.572121;-0.227484
7.030;2.566939;-0.240503
7.040;2.561743;-0.253529
7.050;2.556090;-0.267498
7.060;2.549619;-0.283203
7.070;2.542063;-0.301052
7.080;2.533192;-0.320953
7.090;2.522724;-0.342332
7.100;2.510286;-0.364266
7.110;2.495465;-0.385716
7.120;2.477928;-0.405874
7.130;2.457511;-0.424498
7.140;2.434186;-0.442100
7.150;2.407942;-0.459807
7.160;2.378673;-0.478915
7.170;2.346177;-0.500291
7.180;2.310288;-0.523950
7.190;2.271045;-0.548968
7.200;2.228791;-0.573754
7.210;2.184129;-0.596523
7.220;2.137804;-0.615766
7.230;2.090594;-0.630547
7.240;2.043335;-0.640587
7.250;1.997061;-0.646149
7.260;1.953157;-0.647788
7.270;1.913405;-0.646076
7.280;1.879848;-0.641386
7.290;1.854494;-0.633860
7.300;1.838967;-0.623533
7.310;1.834209;-0.610561
7.320;1.840323;-0.595423
7.330;1.856579;-0.578998
7.340;1.881558;-0.562474
7.350;1.913394;-0.547156
7.360;1.950027;-0.534251
7.370;1.989411;-0.524695
7.380;2.029635;-0.519007
7.390;2.069004;-0.517142
7.400;2.106138;-0.518411
7.410;2.140114;-0.521519
7.420;2.170570;-0.524801
7.430;2.197662;-0.526597
7.440;2.221814;-0.525652
7.450;2.243353;-0.521402
7.460;2.262191;-0.514093
7.470;2.277727;-0.504733
7.480;2.289011;-0.494902
7.490;2.295088;-0.486421
7.500;2.295377;-0.480935
7.510;2.289923;-0.479507
7.520;2.279441;-0.482378
7.530;2.265165;-0.488992
7.540;2.248569;-0.498271
7.550;2.231061;-0.509001
7.560;2.213739;-0.520154
7.570;2.197251;-0.531036
7.580;2.181808;-0.541296
7.590;2.167320;-0.550880
7.600;2.153606;-0.559995
7.610;2.140588;-0.569078
7.620;2.128410;-0.578716
7.630;2.117444;-0.589498
7.640;2.108201;-0.601821
7.650;2.101167;-0.615737
7.660;2.096622;-0.630907
7.670;2.094481;-0.646703
7.680;2.094215;-0.662410
7.690;2.094865;-0.677472
7.700;2.095166;-0.691691
7.710;2.093734;-0.705281
7.720;2.089310;-0.718747
7.730;2.080999;-0.732619
7.740;2.068489;-0.747164
7.750;2.052175;-0.762198
7.760;2.033126;-0.777102
7.770;2.012862;-0.791027
7.780;1.992991;-0.803187
7.790;1.974844;-0.813123
7.800;1.959265;-0.820806
7.810;1.946632;-0.826582
7.820;1.937002;-0.831012
7.830;1.930293;-0.834730
7.840;1.926369;-0.838347
7.850;1.925043;-0.842420
7.860;1.926042;-0.847438
7.870;1.929000;-0.853798
7.880;1.933503;-0.861811
7.890;1.939144;-0.871730
7.900;1.945529;-0.883833
7.910;1.952213;-0.898468
7.920;1.958622;-0.916047
7.930;1.964034;-0.936950
7.940;1.967634;-0.961434
7.950;1.968611;-0.989563
7.960;1.966254;-1.021186
7.970;1.960011;-1.055924
7.980;1.949514;-1.093161
7.990;1.934563;-1.132078
8.000;1.915061;-1.171748
8.010;1.890922;-1.211271
8.020;1.862007;-1.249899
8.030;1.828158;-1.287068
