Time[s];COPx[cm];COPy[cm]
0.010;-2.298523;0.790214
0.020;-2.307203;0.784237
0.030;-2.316264;0.779101
0.040;-2.326011;0.775328
0.050;-2.336592;0.773006
0.060;-2.347905;0.771872
0.070;-2.359544;0.771536
0.080;-2.370799;0.771661
0.090;-2.380735;0.772054
0.100;-2.388336;0.772659
0.110;-2.392698;0.773522
0.120;-2.393231;0.774750
0.130;-2.389835;0.776465
0.140;-2.382990;0.778735
0.150;-2.373728;0.781512
0.160;-2.363443;0.784607
0.170;-2.353572;0.787748
0.180;-2.345234;0.790702
0.190;-2.338925;0.793398
0.200;-2.334350;0.795972
0.210;-2.330419;0.798730
0.220;-2.325401;0.802077
0.230;-2.317229;0.806431
0.240;-2.303926;0.812145
0.250;-2.284088;0.819404
0.260;-2.257307;0.828161
0.270;-2.224371;0.838174
0.280;-2.187134;0.849160
0.290;-2.148096;0.860977
0.300;-2.109840;0.873730
0.310;-2.074542;0.887717
0.320;-2.043719;0.903235
0.330;-2.018210;0.920335
0.340;-1.998284;0.938616
0.350;-1.983759;0.957189
0.360;-1.974090;0.974835
0.370;-1.968461;0.990320
0.380;-1.965937;1.002698
0.390;-1.965636;1.011516
0.400;-1.966873;1.016856
0.410;-1.969205;1.019264
0.420;-1.972400;1.019576
0.430;-1.976350;1.018714
0.440;-1.980976;1.017482
0.450;-1.986147;1.016403
0.460;-1.991658;1.015676
0.470;-1.997271;1.015222
0.480;-2.002812;1.014835
0.490;-2.008259;1.014344
0.500;-2.013771;1.013731
0.510;-2.019618;1.013178
0.520;-2.026054;1.012999
0.530;-2.033185;1.013534
0.540;-2.040912;1.015001
0.550;-2.048964;1.017394
0.560;-2.056975;1.020438
0.570;-2.064579;1.023649
0.580;-2.071484;1.026470
0.590;-2.077510;1.028438
0.600;-2.082618;1.029308
0.610;-2.086922;1.029077
0.620;-2.090680;1.027925
0.630;-2.094240;1.026112
0.640;-2.097921;1.023879
0.650;-2.101853;1.021391
0.660;-2.105823;1.018737
0.670;-2.109234;1.016018
0.680;-2.111210;1.013465
0.690;-2.110864;1.011480
0.700;-2.107629;1.010514
0.710;-2.101514;1.010814
0.720;-2.093180;1.012209
0.730;-2.083789;1.014102
0.740;-2.074706;1.015722
0.750;-2.067142;1.016487
0.760;-2.061848;1.016275
0.770;-2.058931;1.015433
0.780;-2.057827;1.014563
0.790;-2.057439;1.014193
0.800;-2.056390;1.014519
0.810;-2.053335;1.015322
0.820;-2.047251;1.016060
0.830;-2.037638;1.016075
0.840;-2.024602;1.014805
0.850;-2.008825;1.011934
0.860;-1.991436;1.007467
0.870;-1.973828;1.001701
0.880;-1.957427;0.995128
0.890;-1.943464;0.988275
0.900;-1.932782;0.981539
0.910;-1.925730;0.975062
0.920;-1.922178;0.968684
0.930;-1.921636;0.962027
0.940;-1.923451;0.954661
0.950;-1.927015;0.946289
0.960;-1.931935;0.936864
0.970;-1.938129;0.926583
0.980;-1.945807;0.915794
0.990;-1.955339;0.904899
1.000;-1.967040;0.894306
1.010;-1.980978;0.884437
1.020;-1.996907;0.875733
1.030;-2.014336;0.868597
1.040;-2.032690;0.863272
1.050;-2.051473;0.859697
1.060;-2.070373;0.857447
1.070;-2.089294;0.855794
1.080;-2.108347;0.853891
1.090;-2.127802;0.851023
1.100;-2.147991;0.846837
1.110;-2.169201;0.841494
1.120;-2.191563;0.835664
1.130;-2.215005;0.830322
1.140;-2.239294;0.826389
1.150;-2.264166;0.824355
1.160;-2.289480;0.824057
1.170;-2.315318;0.824760
1.180;-2.341953;0.825495
1.190;-2.369719;0.825479
1.200;-2.398829;0.824411
1.210;-2.429254;0.822515
1.220;-2.460692;0.820377
1.230;-2.492638;0.818688
1.240;-2.524531;0.817991
1.250;-2.555901;0.818505
1.260;-2.586465;0.820059
1.270;-2.616140;0.822162
1.280;-2.644957;0.824189
1.290;-2.672926;0.825605
1.300;-2.699864;0.826117
1.310;-2.725288;0.825695
1.320;-2.748401;0.824481
1.330;-2.768217;0.822695
1.340;-2.783772;0.820607
1.350;-2.794367;0.818554
1.360;-2.799736;0.816916
1.370;-2.800065;0.815997
1.380;-2.795848;0.815879
1.390;-2.787655;0.816375
1.400;-2.775940;0.817113
1.410;-2.760981;0.817719
1.420;-2.742964;0.817966
1.430;-2.722122;0.817811
1.440;-2.698820;0.817316
1.450;-2.673565;0.816532
1.460;-2.646957;0.815416
1.470;-2.619649;0.813835
1.480;-2.592314;0.811609
1.490;-2.565587;0.808538
1.500;-2.539967;0.804388
1.510;-2.515703;0.798889
1.520;-2.492777;0.791797
1.530;-2.471006;0.783004
1.540;-2.450266;0.772625
1.550;-2.430691;0.761012
1.560;-2.412710;0.748661
1.570;-2.396872;0.736090
1.580;-2.383575;0.723735
1.590;-2.372822;0.711910
1.600;-2.364129;0.700816
1.610;-2.356595;0.690541
1.620;-2.349070;0.681062
1.630;-2.340343;0.672231
1.640;-2.329307;0.663780
1.650;-2.315090;0.655370
1.660;-2.297185;0.646668
1.670;-2.275566;0.637460
1.680;-2.250735;0.627750
1.690;-2.223663;0.617777
1.700;-2.195600;0.607930
1.710;-2.167834;0.598597
1.720;-2.141478;0.590023
1.730;-2.117346;0.582253
1.740;-2.095927;0.575191
1.750;-2.077409;0.568723
1.760;-2.061743;0.562837
1.770;-2.048691;0.557667
1.780;-2.037875;0.553442
1.790;-2.028823;0.550353
1.800;-2.021024;0.548428
1.810;-2.013964;0.547478
1.820;-2.007165;0.547181
1.830;-2.000223;0.547243
1.840;-1.992866;0.547546
1.850;-1.985030;0.548206
1.860;-1.976917;0.549509
1.870;-1.969009;0.551782
1.880;-1.961984;0.555247
1.890;-1.956552;0.559965
1.900;-1.953220;0.565866
1.910;-1.952073;0.572858
1.920;-1.952662;0.580899
1.930;-1.954089;0.589997
1.940;-1.955294;0.600140
1.950;-1.955450;0.611214
1.960;-1.954294;0.622968
1.970;-1.952232;0.635056
1.980;-1.950160;0.647122
1.990;-1.949082;0.658898
2.000;-1.949723;0.670281
2.010;-1.952301;0.681378
2.020;-1.956542;0.692511
2.030;-1.961867;0.704170
2.040;-1.967650;0.716919
2.050;-1.973408;0.731284
2.060;-1.978887;0.747655
2.070;-1.984031;0.766233
2.080;-1.988873;0.786986
2.090;-1.993430;0.809641
2.100;-1.997647;0.833693
2.110;-2.001414;0.858453
2.120;-2.004607;0.883136
2.130;-2.007135;0.907011
2.140;-2.008986;0.929558
2.150;-2.010280;0.950583
2.160;-2.011304;0.970232
2.170;-2.012489;0.988866
2.180;-2.014285;1.006856
2.190;-2.016991;1.024381
2.200;-2.020610;1.041307
2.210;-2.024814;1.057196
2.220;-2.029054;1.071422
2.230;-2.032761;1.083306
2.240;-2.035548;1.092238
2.250;-2.037324;1.097770
2.260;-2.038289;1.099677
2.270;-2.038806;1.098013
2.280;-2.039239;1.093138
2.290;-2.039804;1.085667
2.300;-2.040511;1.076336
2.310;-2.041204;1.065832
2.320;-2.041669;1.054683
2.330;-2.041776;1.043253
2.340;-2.041578;1.031794
2.350;-2.041342;1.020457
2.360;-2.041481;1.009241
2.370;-2.042403;0.997921
2.380;-2.044359;0.986049
2.390;-2.047359;0.973073
2.400;-2.051235;0.958514
2.410;-2.055828;0.942130
2.420;-2.061193;0.923957
2.430;-2.067710;0.904224
2.440;-2.076049;0.883212
2.450;-2.086971;0.861143
2.460;-2.101042;0.838182
2.470;-2.118401;0.814522
2.480;-2.138629;0.790476
2.490;-2.160785;0.766479
2.500;-2.183549;0.742996
2.510;-2.205418;0.720401
2.520;-2.224931;0.698879
2.530;-2.240870;0.678430
2.540;-2.252440;0.658976
2.550;-2.259401;0.640554
2.560;-2.262113;0.623508
2.570;-2.261460;0.608596
2.580;-2.258603;0.596940
2.590;-2.254625;0.589803
2.600;-2.250185;0.588277
2.610;-2.245354;0.593006
2.620;-2.239724;0.604041
2.630;-2.232741;0.620845
2.640;-2.224107;0.642417
2.650;-2.214046;0.667498
2.660;-2.203293;0.694827
2.670;-2.192836;0.723393
2.680;-2.183523;0.752629
2.690;-2.175742;0.782445
2.700;-2.169311;0.813091
2.710;-2.163606;0.844876
2.720;-2.157862;0.877876
2.730;-2.151469;0.911762
2.740;-2.144190;0.945792
2.750;-2.136216;0.978984
2.760;-2.128100;1.010370
2.770;-2.120609;1.039220
2.780;-2.114559;1.065146
2.790;-2.110675;1.088092
2.800;-2.109491;1.108246
2.810;-2.111293;1.125921
2.820;-2.116087;1.141459
2.830;-2.123624;1.155146
2.840;-2.133457;1.167151
2.850;-2.145003;1.177481
2.860;-2.157585;1.185981
2.870;-2.170443;1.192395
2.880;-2.182744;1.196480
2.890;-2.193626;1.198143
2.900;-2.202308;1.197524
2.910;-2.208235;1.194992
2.920;-2.211215;1.191047
2.930;-2.211499;1.186157
2.940;-2.209763;1.180631
2.950;-2.206980;1.174549
2.960;-2.204227;1.167773
2.970;-2.202462;1.160006
2.980;-2.202353;1.150864
2.990;-2.204189;1.139965
3.000;-2.207883;1.127019
3.010;-2.213091;1.111935
3.020;-2.219399;1.094898
3.030;-2.226514;1.076369
3.040;-2.234361;1.056992
3.050;-2.243061;1.037430
3.060;-2.252800;1.018206
3.070;-2.263678;0.999636
3.080;-2.275582;0.981870
3.090;-2.288167;0.965002
3.100;-2.300941;0.949163
3.110;-2.313437;0.934535
3.120;-2.325336;0.921293
3.130;-2.336487;0.909530
3.140;-2.346813;0.899209
3.150;-2.356173;0.890196
3.160;-2.364289;0.882360
3.170;-2.370778;0.875699
3.180;-2.375267;0.870420
3.190;-2.377538;0.866892
3.200;-2.377664;0.865501
3.210;-2.376074;0.866433
3.220;-2.373527;0.869513
3.230;-2.370962;0.874165
3.240;-2.369277;0.879515
3.250;-2.369086;0.884632
3.260;-2.370543;0.888785
3.270;-2.373299;0.891645
3.280;-2.376622;0.893357
3.290;-2.379623;0.894471
3.300;-2.381547;0.895766
3.310;-2.382012;0.898038
3.320;-2.381146;0.901900
3.330;-2.379549;0.907651
3.340;-2.378120;0.915226
3.350;-2.377777;0.924256
3.360;-2.379198;0.934174
3.370;-2.382651;0.944351
3.380;-2.387963;0.954199
3.390;-2.394618;0.963252
3.400;-2.401915;0.971218
3.410;-2.409096;0.978026
3.420;-2.415423;0.983827
3.430;-2.420202;0.988948
3.440;-2.422811;0.993785
3.450;-2.422765;0.998645
3.460;-2.419842;1.003620
3.470;-2.414198;1.008534
3.480;-2.406392;1.013015
3.490;-2.397235;1.016682
3.500;-2.387504;1.019395
3.510;-2.377648;1.021456
3.520;-2.367631;1.023644
3.530;-2.357025;1.027032
3.540;-2.345296;1.032619
3.550;-2.332120;1.040939
3.560;-2.317538;1.051789
3.570;-2.301880;1.064192
3.580;-2.285532;1.076641
3.590;-2.268703;1.087534
3.600;-2.251280;1.095617
3.610;-2.232813;1.100256
3.620;-2.212614;1.101476
3.630;-2.189939;1.099798
3.640;-2.164211;1.095980
3.650;-2.135247;1.090776
3.660;-2.103416;1.084756
3.670;-2.069659;1.078241
3.680;-2.035345;1.071333
3.690;-2.002009;1.064045
3.700;-1.971050;1.056418
3.710;-1.943477;1.048583
3.720;-1.919774;1.040718
3.730;-1.899915;1.032942
3.740;-1.883502;1.025241
3.750;-1.869969;1.017458
3.760;-1.858766;1.009357
3.770;-1.849488;1.000728
3.780;-1.841940;0.991492
3.790;-1.836168;0.981766
3.800;-1.832441;0.971859
3.810;-1.831177;0.962160
3.820;-1.832811;0.952982
3.830;-1.837645;0.944434
3.840;-1.845753;0.936377
3.850;-1.856945;0.928472
3.860;-1.870776;0.920275
3.870;-1.886561;0.911371
3.880;-1.903376;0.901522
3.890;-1.920074;0.890816
3.900;-1.935363;0.879741
3.910;-1.948004;0.869132
3.920;-1.957075;0.859963
3.930;-1.962221;0.853068
3.940;-1.963747;0.848863
3.950;-1.962507;0.847226
3.960;-1.959627;0.847582
3.970;-1.956186;0.849162
3.980;-1.952956;0.851311
3.990;-1.950270;0.853687
4.000;-1.948026;0.856312
4.010;-1.945793;0.859481
4.020;-1.942984;0.863615
4.030;-1.938996;0.869113
4.040;-1.933332;0.876229
4.050;-1.925673;0.884987
4.060;-1.915954;0.895151
4.070;-1.904398;0.906233
4.080;-1.891456;0.917555
4.090;-1.877659;0.928347
4.100;-1.863433;0.937892
4.110;-1.849031;0.945680
4.120;-1.834590;0.951541
4.130;-1.820284;0.955698
4.140;-1.806435;0.958746
4.150;-1.793535;0.961556
4.160;-1.782125;0.965091
4.170;-1.772616;0.970150
4.180;-1.765110;0.977065
4.190;-1.759335;0.985493
4.200;-1.754705;0.994416
4.210;-1.750492;1.002405
4.220;-1.746036;1.008067
4.230;-1.740933;1.010506
4.240;-1.735151;1.009609
4.250;-1.729055;1.006046
4.260;-1.723321;1.000962
4.270;-1.718760;0.995511
4.280;-1.716077;0.990438
4.290;-1.715665;0.985899
4.300;-1.717493;0.981567
4.310;-1.721161;0.976926
4.320;-1.726090;0.971588
4.330;-1.731758;0.965489
4.340;-1.737861;0.958904
4.350;-1.744331;0.952307
4.360;-1.751215;0.946157
4.370;-1.758527;0.940669
4.380;-1.766162;0.935682
4.390;-1.773898;0.930657
4.400;-1.781487;0.924845
4.410;-1.788762;0.917547
4.420;-1.795724;0.908356
4.430;-1.802548;0.897259
4.440;-1.809530;0.884589
4.450;-1.816980;0.870874
4.460;-1.825157;0.856670
4.470;-1.834246;0.842442
4.480;-1.844399;0.828492
4.490;-1.855759;0.814923
4.500;-1.868482;0.801653
4.510;-1.882711;0.788476
4.520;-1.898537;0.775173
4.530;-1.915956;0.761635
4.540;-1.934821;0.747948
4.550;-1.954836;0.734403
4.560;-1.975583;0.721406
4.570;-1.996615;0.709334
4.580;-2.017567;0.698424
4.590;-2.038261;0.688709
4.600;-2.058745;0.680034
4.610;-2.079255;0.672113
4.620;-2.100084;0.664593
4.630;-2.121450;0.657115
4.640;-2.143405;0.649359
4.650;-2.165852;0.641087
4.660;-2.188663;0.632199
4.670;-2.211796;0.622779
4.680;-2.235338;0.613096
4.690;-2.259432;0.603544
4.700;-2.284131;0.594541
4.710;-2.309256;0.586391
4.720;-2.334344;0.579184
4.730;-2.358708;0.572757
4.740;-2.381601;0.566747
4.750;-2.402408;0.560745
4.760;-2.420790;0.554492
4.770;-2.436741;0.548064
4.780;-2.450575;0.541931
4.790;-2.462892;0.536860
4.800;-2.474518;0.533682
4.810;-2.486397;0.533039
4.820;-2.499398;0.535220
4.830;-2.514079;0.540109
4.840;-2.530498;0.547246
4.850;-2.548194;0.555904
4.860;-2.566378;0.565181
4.870;-2.584244;0.574096
4.880;-2.601234;0.581724
4.890;-2.617144;0.587371
4.900;-2.632029;0.590728
4.910;-2.645981;0.591934
4.920;-2.658919;0.591534
4.930;-2.670484;0.590343
4.940;-2.680118;0.589275
4.950;-2.687261;0.589160
4.960;-2.691612;0.590604
4.970;-2.693295;0.593929
4.980;-2.692836;0.599206
4.990;-2.690938;0.606350
5.000;-2.688159;0.615215
5.010;-2.684636;0.625635
5.020;-2.679999;0.637409
5.030;-2.673522;0.650238
5.040;-2.664427;0.663691
5.050;-2.652247;0.677226
5.060;-2.637074;0.690290
5.070;-2.619627;0.702440
5.080;-2.601088;0.713418
5.090;-2.582761;0.723172
5.100;-2.565668;0.731845
5.110;-2.550208;0.739751
5.120;-2.536029;0.747335
5.130;-2.522175;0.755073
5.140;-2.507474;0.763324
5.150;-2.490994;0.772193
5.160;-2.472373;0.781480
5.170;-2.451867;0.790746
5.180;-2.430156;0.799453
5.190;-2.408073;0.807132
5.200;-2.386386;0.813487
5.210;-2.365692;0.818439
5.220;-2.346408;0.822122
5.230;-2.328791;0.824829
5.240;-2.312966;0.826946
5.250;-2.298976;0.828874
5.260;-2.286830;0.830952
5.270;-2.276533;0.833377
5.280;-2.268083;0.836110
5.290;-2.261433;0.838807
5.300;-2.256446;0.840837
5.310;-2.252880;0.841412
5.320;-2.250416;0.839821
5.330;-2.248742;0.835658
5.340;-2.247629;0.828958
5.350;-2.246977;0.820211
5.360;-2.246770;0.810227
5.370;-2.246989;0.799944
5.380;-2.247525;0.790211
5.390;-2.248128;0.781625
5.400;-2.248432;0.774431
5.410;-2.248015;0.768512
5.420;-2.246469;0.763439
5.430;-2.243429;0.758559
5.440;-2.238582;0.753099
5.450;-2.231683;0.746277
5.460;-2.222630;0.737451
5.470;-2.211571;0.726274
5.480;-2.198971;0.712821
5.490;-2.185591;0.697593
5.500;-2.172366;0.681362
5.510;-2.160221;0.664900
5.520;-2.149904;0.648710
5.530;-2.141900;0.632904
5.540;-2.136423;0.617274
5.550;-2.133478;0.601535
5.560;-2.132947;0.585590
5.570;-2.134656;0.569702
5.580;-2.138391;0.554481
5.590;-2.143872;0.540705
5.600;-2.150698;0.529091
5.610;-2.158324;0.520127
5.620;-2.166090;0.514059
5.630;-2.173355;0.510986
5.640;-2.179682;0.511018
5.650;-2.185012;0.514367
5.660;-2.189721;0.521330
5.670;-2.194498;0.532144
5.680;-2.200102;0.546803
5.690;-2.207069;0.564952
5.700;-2.215526;0.585924
5.710;-2.225174;0.608906
5.720;-2.235453;0.633138
5.730;-2.245792;0.658069
5.740;-2.255841;0.683431
5.750;-2.265589;0.709235
5.760;-2.275355;0.735694
5.770;-2.285663;0.763107
5.780;-2.297064;0.791738
5.790;-2.309937;0.821722
5.800;-2.324357;0.852981
5.810;-2.340046;0.885167
5.820;-2.356427;0.917624
5.830;-2.372743;0.949434
5.840;-2.388209;0.979572
5.850;-2.402167;1.007126
5.860;-2.414240;1.031474
5.870;-2.424409;1.052338
5.880;-2.432988;1.069709
5.890;-2.440445;1.083719
5.900;-2.447147;1.094541
5.910;-2.453131;1.102380
5.920;-2.458037;1.107514
5.930;-2.461235;1.110344
5.940;-2.462112;1.111388
5.950;-2.460393;1.111220
5.960;-2.456344;1.110336
5.970;-2.450770;1.109040
5.980;-2.444810;1.107368
5.990;-2.439607;1.105113
6.000;-2.435995;1.101919
6.010;-2.434351;1.097420
6.020;-2.434641;1.091385
6.030;-2.436637;1.083812
6.040;-2.440165;1.074937
6.050;-2.445262;1.065133
6.060;-2.452183;1.054720
6.070;-2.461251;1.043742
6.080;-2.472644;1.031800
6.090;-2.486194;1.018067
6.100;-2.501292;1.001510
6.110;-2.516954;0.981258
6.120;-2.532049;0.956968
6.130;-2.545632;0.929015
6.140;-2.557250;0.898436
6.150;-2.567089;0.866662
6.160;-2.575898;0.835180
6.170;-2.584758;0.805252
6.180;-2.594784;0.777810
6.190;-2.606900;0.753486
6.200;-2.621712;0.732665
6.210;-2.639488;0.715478
6.220;-2.660168;0.701742
6.230;-2.683364;0.690930
6.240;-2.708312;0.682244
6.250;-2.733846;0.674793
6.260;-2.758467;0.667840
6.270;-2.780563;0.661042
6.280;-2.798726;0.654583
6.290;-2.812054;0.649130
6.300;-2.820313;0.645589
6.310;-2.823934;0.644761
6.320;-2.823849;0.647029
6.330;-2.821227;0.652236
6.340;-2.817191;0.659798
6.350;-2.812567;0.668980
6.360;-2.807737;0.679160
6.370;-2.802636;0.689975
6.380;-2.796867;0.701301
6.390;-2.789878;0.713140
6.400;-2.781107;0.725504
6.410;-2.770052;0.738379
6.420;-2.756286;0.751789
6.430;-2.739491;0.765876
6.440;-2.719557;0.780903
6.450;-2.696702;0.797125
6.460;-2.671531;0.814601
6.470;-2.644964;0.833062
6.480;-2.618033;0.851928
6.490;-2.591670;0.870456
6.500;-2.566575;0.887929
6.510;-2.543228;0.903763
6.520;-2.521975;0.917512
6.530;-2.503150;0.928800
6.540;-2.487131;0.937276
6.550;-2.474295;0.942663
6.560;-2.464886;0.944882
6.570;-2.458877;0.944142
6.580;-2.455948;0.940925
6.590;-2.455594;0.935829
6.600;-2.457322;0.929360
6.610;-2.460797;0.921761
6.620;-2.465870;0.912985
6.630;-2.472476;0.902827
6.640;-2.480480;0.891129
6.650;-2.489591;0.877941
6.660;-2.499388;0.863525
6.670;-2.509473;0.848202
6.680;-2.519635;0.832117
6.690;-2.529931;0.815088
6.700;-2.540627;0.796657
6.710;-2.552058;0.776359
6.720;-2.564448;0.754107
6.730;-2.577799;0.730498
6.740;-2.591846;0.706844
6.750;-2.606119;0.684851
6.760;-2.620073;0.666063
6.770;-2.633230;0.651308
6.780;-2.645302;0.640431
6.790;-2.656224;0.632440
6.800;-2.666111;0.625973
6.810;-2.675169;0.619823
6.820;-2.683619;0.613281
6.830;-2.691663;0.606212
6.840;-2.699469;0.598905
6.850;-2.707135;0.591863
6.860;-2.714603;0.585622
6.870;-2.721559;0.580645
6.880;-2.727404;0.577274
6.890;-2.731355;0.575694
6.900;-2.732669;0.575902
6.910;-2.730894;0.577663
6.920;-2.726035;0.580516
6.930;-2.718547;0.583846
6.940;-2.709177;0.587048
6.950;-2.698740;0.589726
6.960;-2.687926;0.591822
6.970;-2.677203;0.593607
6.980;-2.666777;0.595530
6.990;-2.656586;0.598013
7.000;-2.646302;0.601270
7.010;-2.635397;0.605222
7.020;-2.623265;0.609528
7.030;-2.609399;0.613707
7.040;-2.593531;0.617303
7.050;-2.575698;0.620016
7.060;-2.556252;0.621762
7.070;-2.535837;0.622641
7.080;-2.515350;0.622855
7.090;-2.495886;0.622610
7.100;-2.478611;0.622089
7.110;-2.464566;0.621477
7.120;-2.454451;0.621032
7.130;-2.448456;0.621116
7.140;-2.446242;0.622141
7.150;-2.447064;0.624445
7.160;-2.450026;0.628173
7.170;-2.454351;0.633235
7.180;-2.459588;0.639342
7.190;-2.465661;0.646109
7.200;-2.472728;0.653149
7.210;-2.480920;0.660167
7.220;-2.490077;0.667010
7.230;-2.499646;0.673681
7.240;-2.508802;0.680302
7.250;-2.516765;0.687053
7.260;-2.523146;0.694100
7.270;-2.528150;0.701500
7.280;-2.532520;0.709136
7.290;-2.537231;0.716711
7.300;-2.543075;0.723844
7.310;-2.550331;0.730201
7.320;-2.558656;0.735608
7.330;-2.567215;0.740096
7.340;-2.574970;0.743901
7.350;-2.580991;0.747439
7.360;-2.584711;0.751258
7.370;-2.586071;0.755962
7.380;-2.585512;0.762076
7.390;-2.583845;0.769906
7.400;-2.582032;0.779463
7.410;-2.580929;0.790476
7.420;-2.581054;0.802506
7.430;-2.582453;0.815070
7.440;-2.584698;0.827757
7.450;-2.587016;0.840316
7.460;-2.588548;0.852686
7.470;-2.588642;0.864941
7.480;-2.587087;0.877164
7.490;-2.584187;0.889337
7.500;-2.580649;0.901309
7.510;-2.577340;0.912859
7.520;-2.574998;0.923771
7.530;-2.574011;0.933867
7.540;-2.574329;0.943002
7.550;-2.575520;0.951052
7.560;-2.576961;0.957955
7.570;-2.578057;0.963789
7.580;-2.578387;0.968810
7.590;-2.577724;0.973414
7.600;-2.575959;0.978005
7.610;-2.573052;0.982872
7.620;-2.569045;0.988105
7.630;-2.564156;0.993594
7.640;-2.558841;0.999056
7.650;-2.553768;1.004079
7.660;-2.549658;1.008202
7.670;-2.547060;1.011004
7.680;-2.546154;1.012203
7.690;-2.546681;1.011730
7.700;-2.548046;1.009772
7.710;-2.549555;1.006774
7.720;-2.550684;1.003368
7.730;-2.551249;1.000232
7.740;-2.551410;0.997883
7.750;-2.551506;0.996506
7.760;-2.551829;0.995899
7.770;-2.552447;0.995559
7.780;-2.553135;0.994895
7.790;-2.553431;0.993443
7.800;-2.552749;0.991026
7.810;-2.550528;0.987798
7.820;-2.546367;0.984177
7.830;-2.540145;0.980724
7.840;-2.532109;0.977960
7.850;-2.522904;0.976188
7.860;-2.513507;0.975360
7.870;-2.505077;0.975057
7.880;-2.498744;0.974618
7.890;-2.495401;0.973388
7.900;-2.495548;0.971012
7.910;-2.499226;0.967630
7.920;-2.506054;0.963868
7.930;-2.515355;0.960601
7.940;-2.526331;0.958599
7.950;-2.538259;0.958238
7.960;-2.550640;0.959406
7.970;-2.563301;0.961645
7.980;-2.576371;0.964417
