Time[s];COPx[cm];COPy[cm]
0.010;2.163834;0.364799
0.020;2.155705;0.358496
0.030;2.147931;0.353147
0.040;2.140825;0.349299
0.050;2.134637;0.347014
0.060;2.129577;0.345926
0.070;2.125827;0.345466
0.080;2.123515;0.345092
0.090;2.122673;0.344459
0.100;2.123190;0.343462
0.110;2.124784;0.342189
0.120;2.127025;0.340834
0.130;2.129390;0.339599
0.140;2.131361;0.338622
0.150;2.132511;0.337925
0.160;2.132564;0.337381
0.170;2.131390;0.336712
0.180;2.128971;0.335558
0.190;2.125349;0.333604
0.200;2.120584;0.330702
0.210;2.114770;0.326896
0.220;2.108100;0.322356
0.230;2.100927;0.317252
0.240;2.093783;0.311682
0.250;2.087308;0.305667
0.260;2.082102;0.299227
0.270;2.078562;0.292450
0.280;2.076743;0.285525
0.290;2.076330;0.278690
0.300;2.076744;0.272158
0.310;2.077353;0.266039
0.320;2.077686;0.260327
0.330;2.077552;0.254941
0.340;2.076994;0.249800
0.350;2.076145;0.244869
0.360;2.075078;0.240132
0.370;2.073747;0.235532
0.380;2.072028;0.230923
0.390;2.069822;0.226081
0.400;2.067157;0.220750
0.410;2.064230;0.214740
0.420;2.061379;0.208021
0.430;2.058970;0.200791
0.440;2.057278;0.193478
0.450;2.056386;0.186673
0.460;2.056161;0.181006
0.470;2.056299;0.177008
0.480;2.056436;0.175009
0.490;2.056261;0.175061
0.500;2.055606;0.176900
0.510;2.054454;0.179954
0.520;2.052872;0.183444
0.530;2.050934;0.186596
0.540;2.048665;0.188912
0.550;2.046058;0.190387
0.560;2.043118;0.191578
0.570;2.039916;0.193444
0.580;2.036603;0.197000
0.590;2.033389;0.202887
0.600;2.030507;0.211056
0.610;2.028181;0.220742
0.620;2.026597;0.230741
0.630;2.025880;0.239868
0.640;2.026074;0.247367
0.650;2.027162;0.253106
0.660;2.029118;0.257516
0.670;2.031963;0.261331
0.680;2.035790;0.265269
0.690;2.040695;0.269785
0.700;2.046645;0.274975
0.710;2.053358;0.280610
0.720;2.060302;0.286259
0.730;2.066844;0.291394
0.740;2.072508;0.295494
0.750;2.077216;0.298146
0.760;2.081394;0.299161
0.770;2.085896;0.298684
0.780;2.091773;0.297215
0.790;2.099966;0.295550
0.800;2.111039;0.294604
0.810;2.125019;0.295195
0.820;2.141392;0.297822
0.830;2.159200;0.302532
0.840;2.177227;0.308905
0.850;2.194231;0.316197
0.860;2.209212;0.323573
0.870;2.221627;0.330348
0.880;2.231504;0.336128
0.890;2.239404;0.340805
0.900;2.246239;0.344448
0.910;2.252959;0.347194
0.920;2.260223;0.349201
0.930;2.268152;0.350668
0.940;2.276277;0.351838
0.950;2.283695;0.352959
0.960;2.289367;0.354200
0.970;2.292438;0.355588
0.980;2.292484;0.356998
0.990;2.289606;0.358233
1.000;2.284397;0.359130
1.010;2.277781;0.359638
1.020;2.270789;0.359842
1.030;2.264318;0.359929
1.040;2.258948;0.360132
1.050;2.254856;0.360675
1.060;2.251819;0.361720
1.070;2.249310;0.363329
1.080;2.246655;0.365435
1.090;2.243216;0.367840
1.100;2.238558;0.370244
1.110;2.232540;0.372318
1.120;2.225324;0.373814
1.130;2.217306;0.374683
1.140;2.208998;0.375136
1.150;2.200892;0.375565
1.160;2.193308;0.376357
1.170;2.186324;0.377680
1.180;2.179798;0.379381
1.190;2.173495;0.381069
1.200;2.167254;0.382323
1.210;2.161107;0.382933
1.220;2.155319;0.383048
1.230;2.150349;0.383161
1.240;2.146747;0.383957
1.250;2.145022;0.386077
1.260;2.145464;0.389910
1.270;2.148017;0.395502
1.280;2.152242;0.402596
1.290;2.157447;0.410776
1.300;2.162922;0.419600
1.310;2.168164;0.428697
1.320;2.172995;0.437797
1.330;2.177540;0.446706
1.340;2.182113;0.455249
1.350;2.187048;0.463212
1.360;2.192530;0.470323
1.370;2.198457;0.476303
1.380;2.204428;0.480973
1.390;2.209866;0.484350
1.400;2.214259;0.486671
1.410;2.217369;0.488312
1.420;2.219334;0.489640
1.430;2.220621;0.490882
1.440;2.221869;0.492070
1.450;2.223687;0.493081
1.460;2.226475;0.493723
1.470;2.230305;0.493842
1.480;2.234886;0.493398
1.490;2.239611;0.492493
1.500;2.243685;0.491358
1.510;2.246345;0.490284
1.520;2.247110;0.489528
1.530;2.245955;0.489229
1.540;2.243304;0.489353
1.550;2.239845;0.489693
1.560;2.236238;0.489919
1.570;2.232888;0.489664
1.580;2.229857;0.488626
1.590;2.226961;0.486655
1.600;2.223969;0.483809
1.610;2.220765;0.480343
1.620;2.217377;0.476637
1.630;2.213877;0.473061
1.640;2.210263;0.469850
1.650;2.206426;0.467043
1.660;2.202248;0.464534
1.670;2.197740;0.462208
1.680;2.193132;0.460068
1.690;2.188844;0.458267
1.700;2.185372;0.457034
1.710;2.183158;0.456527
1.720;2.182479;0.456740
1.730;2.183348;0.457504
1.740;2.185447;0.458577
1.750;2.188124;0.459736
1.760;2.190484;0.460810
1.770;2.191579;0.461665
1.780;2.190644;0.462190
1.790;2.187321;0.462290
1.800;2.181783;0.461902
1.810;2.174720;0.461040
1.820;2.167185;0.459835
1.830;2.160339;0.458556
1.840;2.155176;0.457573
1.850;2.152270;0.457291
1.860;2.151620;0.458070
1.870;2.152663;0.460156
1.880;2.154447;0.463635
1.890;2.155925;0.468419
1.900;2.156230;0.474272
1.910;2.154857;0.480846
1.920;2.151708;0.487754
1.930;2.147045;0.494654
1.940;2.141409;0.501335
1.950;2.135519;0.507770
1.960;2.130168;0.514091
1.970;2.126069;0.520541
1.980;2.123681;0.527414
1.990;2.123023;0.535023
2.000;2.123579;0.543684
2.010;2.124357;0.553683
2.020;2.124132;0.565209
2.030;2.121814;0.578266
2.040;2.116805;0.592621
2.050;2.109219;0.607817
2.060;2.099872;0.623244
2.070;2.090047;0.638245
2.080;2.081106;0.652216
2.090;2.074110;0.664715
2.100;2.069559;0.675552
2.110;2.067354;0.684841
2.120;2.066939;0.692972
2.130;2.067563;0.700485
2.140;2.068567;0.707855
2.150;2.069605;0.715299
2.160;2.070752;0.722691
2.170;2.072442;0.729662
2.180;2.075271;0.735826
2.190;2.079742;0.741016
2.200;2.086083;0.745373
2.210;2.094187;0.749283
2.220;2.103659;0.753186
2.230;2.113939;0.757387
2.240;2.124436;0.761935
2.250;2.134640;0.766620
2.260;2.144173;0.771059
2.270;2.152767;0.774838
2.280;2.160197;0.777635
2.290;2.166248;0.779302
2.300;2.170755;0.779875
2.310;2.173697;0.779532
2.320;2.175272;0.778542
2.330;2.175896;0.777193
2.340;2.176097;0.775711
2.350;2.176373;0.774155
2.360;2.177044;0.772357
2.370;2.178179;0.769962
2.380;2.179629;0.766605
2.390;2.181151;0.762098
2.400;2.182574;0.756531
2.410;2.183905;0.750214
2.420;2.185324;0.743521
2.430;2.187067;0.736734
2.440;2.189274;0.729941
2.450;2.191877;0.723015
2.460;2.194627;0.715649
2.470;2.197226;0.707437
2.480;2.199519;0.698002
2.490;2.201634;0.687153
2.500;2.203969;0.675026
2.510;2.207040;0.662120
2.520;2.211234;0.649203
2.530;2.216592;0.637070
2.540;2.222756;0.626253
2.550;2.229097;0.616795
2.560;2.234971;0.608194
2.570;2.239957;0.599565
2.580;2.243956;0.589967
2.590;2.247083;0.578780
2.600;2.249450;0.565942
2.610;2.250977;0.551946
2.620;2.251369;0.537614
2.630;2.250235;0.523765
2.640;2.247283;0.510957
2.650;2.242450;0.499389
2.660;2.235945;0.488958
2.670;2.228198;0.479383
2.680;2.219761;0.470308
2.690;2.211205;0.461363
2.700;2.203019;0.452195
2.710;2.195543;0.442537
2.720;2.188934;0.432304
2.730;2.183160;0.421661
2.740;2.178024;0.411004
2.750;2.173216;0.400845
2.760;2.168366;0.391654
2.770;2.163086;0.383713
2.780;2.157047;0.377011
2.790;2.150062;0.371196
2.800;2.142163;0.365607
2.810;2.133596;0.359427
2.820;2.124724;0.351941
2.830;2.115878;0.342856
2.840;2.107265;0.332530
2.850;2.098983;0.321991
2.860;2.091130;0.312666
2.870;2.083924;0.305935
2.880;2.077719;0.302690
2.890;2.072915;0.303085
2.900;2.069787;0.306545
2.910;2.068352;0.312001
2.920;2.068319;0.318261
2.930;2.069126;0.324379
2.940;2.070038;0.329890
2.950;2.070269;0.334828
2.960;2.069133;0.339555
2.970;2.066206;0.344525
2.980;2.061446;0.350081
2.990;2.055228;0.356380
3.000;2.048272;0.363392
3.010;2.041473;0.370945
3.020;2.035682;0.378778
3.030;2.031494;0.386613
3.040;2.029100;0.394239
3.050;2.028245;0.401607
3.060;2.028335;0.408873
3.070;2.028632;0.416360
3.080;2.028505;0.424449
3.090;2.027616;0.433422
3.100;2.026009;0.443332
3.110;2.024046;0.453964
3.120;2.022221;0.464905
3.130;2.020939;0.475671
3.140;2.020363;0.485844
3.150;2.020418;0.495160
3.160;2.020899;0.503537
3.170;2.021602;0.511042
3.180;2.022394;0.517824
3.190;2.023198;0.524013
3.200;2.023945;0.529653
3.210;2.024555;0.534671
3.220;2.024969;0.538915
3.230;2.025220;0.542212
3.240;2.025484;0.544400
3.250;2.026061;0.545345
3.260;2.027296;0.544952
3.270;2.029451;0.543182
3.280;2.032601;0.540067
3.290;2.036571;0.535705
3.300;2.040975;0.530232
3.310;2.045331;0.523768
3.320;2.049219;0.516367
3.330;2.052393;0.507992
3.340;2.054786;0.498551
3.350;2.056429;0.487984
3.360;2.057332;0.476346
3.370;2.057440;0.463853
3.380;2.056675;0.450867
3.390;2.055050;0.437800
3.400;2.052752;0.424983
3.410;2.050140;0.412560
3.420;2.047634;0.400465
3.430;2.045558;0.388525
3.440;2.043995;0.376625
3.450;2.042744;0.364838
3.460;2.041386;0.353391
3.470;2.039468;0.342498
3.480;2.036709;0.332162
3.490;2.033168;0.322130
3.500;2.029286;0.312056
3.510;2.025773;0.301755
3.520;2.023393;0.291368
3.530;2.022695;0.281312
3.540;2.023808;0.272079
3.550;2.026343;0.264008
3.560;2.029437;0.257162
3.570;2.031940;0.251379
3.580;2.032702;0.246428
3.590;2.030871;0.242148
3.600;2.026110;0.238468
3.610;2.018652;0.235312
3.620;2.009153;0.232486
3.630;1.998423;0.229644
3.640;1.987120;0.226369
3.650;1.975551;0.222332
3.660;1.963647;0.217455
3.670;1.951079;0.212000
3.680;1.937452;0.206513
3.690;1.922481;0.201635
3.700;1.906084;0.197842
3.710;1.888425;0.195244
3.720;1.869921;0.193553
3.730;1.851237;0.192234
3.740;1.833247;0.190787
3.750;1.816967;0.188982
3.760;1.803414;0.186949
3.770;1.793416;0.185088
3.780;1.787383;0.183888
3.790;1.785116;0.183760
3.800;1.785752;0.184951
3.810;1.787910;0.187524
3.820;1.790045;0.191384
3.830;1.790877;0.196345
3.840;1.789768;0.202221
3.850;1.786884;0.208929
3.860;1.783113;0.216533
3.870;1.779788;0.225246
3.880;1.778312;0.235361
3.890;1.779797;0.247137
3.900;1.784810;0.260675
3.910;1.793271;0.275839
3.920;1.804541;0.292245
3.930;1.817668;0.309350
3.940;1.831680;0.326592
3.950;1.845843;0.343510
3.960;1.859781;0.359799
3.970;1.873468;0.375295
3.980;1.887104;0.389929
3.990;1.900934;0.403680
4.000;1.915081;0.416558
4.010;1.929465;0.428600
4.020;1.943823;0.439839
4.030;1.957801;0.450260
4.040;1.971069;0.459773
4.050;1.983402;0.468243
4.060;1.994730;0.475544
4.070;2.005118;0.481602
4.080;2.014688;0.486398
4.090;2.023512;0.489935
4.100;2.031533;0.492256
4.110;2.038570;0.493494
4.120;2.044375;0.493921
4.130;2.048723;0.493915
4.140;2.051465;0.493807
4.150;2.052570;0.493727
4.160;2.052125;0.493531
4.170;2.050331;0.492878
4.180;2.047498;0.491388
4.190;2.044066;0.488799
4.200;2.040604;0.485079
4.210;2.037739;0.480480
4.220;2.036025;0.475529
4.230;2.035785;0.470915
4.240;2.037018;0.467261
4.250;2.039405;0.464856
4.260;2.042424;0.463486
4.270;2.045511;0.462467
4.280;2.048218;0.460913
4.290;2.050327;0.458125
4.300;2.051921;0.453919
4.310;2.053370;0.448758
4.320;2.055233;0.443577
4.330;2.058074;0.439403
4.340;2.062292;0.436922
4.350;2.068016;0.436228
4.360;2.075142;0.436853
4.370;2.083456;0.438048
4.380;2.092784;0.439139
4.390;2.103073;0.439786
4.400;2.114374;0.440057
4.410;2.126744;0.440340
4.420;2.140126;0.441188
4.430;2.154263;0.443145
4.440;2.168709;0.446582
4.450;2.182921;0.451568
4.460;2.196385;0.457808
4.470;2.208709;0.464676
4.480;2.219623;0.471350
4.490;2.228951;0.476989
4.500;2.236566;0.480930
4.510;2.242387;0.482825
4.520;2.246388;0.482701
4.530;2.248625;0.480900
4.540;2.249225;0.477945
4.550;2.248345;0.474383
4.560;2.246113;0.470700
4.570;2.242602;0.467298
4.580;2.237841;0.464509
4.590;2.231857;0.462568
4.600;2.224705;0.461571
4.610;2.216479;0.461446
4.620;2.207307;0.461960
4.630;2.197337;0.462744
4.640;2.186733;0.463314
4.650;2.175671;0.463099
4.660;2.164341;0.461546
4.670;2.152941;0.458302
4.680;2.141689;0.453431
4.690;2.130819;0.447537
4.700;2.120568;0.441710
4.710;2.111125;0.437247
4.720;2.102585;0.435269
4.730;2.094933;0.436362
4.740;2.088087;0.440393
4.750;2.081989;0.446576
4.760;2.076684;0.453761
4.770;2.072317;0.460812
4.780;2.069038;0.466917
4.790;2.066855;0.471715
4.800;2.065545;0.475254
4.810;2.064672;0.477863
4.820;2.063725;0.480005
4.830;2.062308;0.482148
4.840;2.060309;0.484662
4.850;2.057925;0.487758
4.860;2.055543;0.491505
4.870;2.053524;0.495900
4.880;2.052034;0.500930
4.890;2.050992;0.506562
4.900;2.050169;0.512662
4.910;2.049327;0.518920
4.920;2.048342;0.524861
4.930;2.047253;0.529975
4.940;2.046226;0.533917
4.950;2.045470;0.536668
4.960;2.045158;0.538564
4.970;2.045410;0.540125
4.980;2.046344;0.541772
4.990;2.048161;0.543591
5.000;2.051188;0.545281
5.010;2.055820;0.546291
5.020;2.062363;0.546055
5.030;2.070868;0.544206
5.040;2.081026;0.540691
5.050;2.092188;0.535769
5.060;2.103489;0.529933
5.070;2.114054;0.523784
5.080;2.123215;0.517914
5.090;2.130682;0.512772
5.100;2.136576;0.508525
5.110;2.141311;0.504983
5.120;2.145379;0.501644
5.130;2.149159;0.497878
5.140;2.152849;0.493160
5.150;2.156509;0.487261
5.160;2.160150;0.480304
5.170;2.163805;0.472699
5.180;2.167525;0.465027
5.190;2.171335;0.457894
5.200;2.175190;0.451818
5.210;2.178959;0.447146
5.220;2.182429;0.444004
5.230;2.185315;0.442292
5.240;2.187290;0.441699
5.250;2.188064;0.441762
5.260;2.187518;0.441947
5.270;2.185834;0.441752
5.280;2.183572;0.440825
5.290;2.181610;0.439063
5.300;2.180948;0.436673
5.310;2.182423;0.434131
5.320;2.186434;0.432060
5.330;2.192779;0.431058
5.340;2.200697;0.431527
5.350;2.209106;0.433553
5.360;2.216960;0.436872
5.370;2.223580;0.440934
5.380;2.228842;0.445040
5.390;2.233145;0.448501
5.400;2.237190;0.450770
5.410;2.241680;0.451527
5.420;2.247045;0.450718
5.430;2.253294;0.448567
5.440;2.260032;0.445546
5.450;2.266639;0.442313
5.460;2.272506;0.439574
5.470;2.277238;0.437900
5.480;2.280721;0.437521
5.490;2.283076;0.438192
5.500;2.284510;0.439196
5.510;2.285153;0.439544
5.520;2.284930;0.438298
5.530;2.283556;0.434882
5.540;2.280680;0.429247
5.550;2.276100;0.421842
5.560;2.269939;0.413419
5.570;2.262674;0.404788
5.580;2.255008;0.396592
5.590;2.247668;0.389180
5.600;2.241214;0.382579
5.610;2.235917;0.376538
5.620;2.231737;0.370633
5.630;2.228354;0.364434
5.640;2.225249;0.357700
5.650;2.221792;0.350502
5.660;2.217358;0.343227
5.670;2.211459;0.336419
5.680;2.203877;0.330559
5.690;2.194759;0.325873
5.700;2.184651;0.322260
5.710;2.174419;0.319364
5.720;2.165082;0.316765
5.730;2.157572;0.314187
5.740;2.152497;0.311604
5.750;2.149986;0.309202
5.760;2.149659;0.307226
5.770;2.150733;0.305835
5.780;2.152237;0.305046
5.790;2.153275;0.304760
5.800;2.153258;0.304825
5.810;2.152040;0.305074
5.820;2.149900;0.305357
5.830;2.147412;0.305552
5.840;2.145275;0.305587
5.850;2.144179;0.305463
5.860;2.144686;0.305275
5.870;2.147138;0.305234
5.880;2.151573;0.305652
5.890;2.157697;0.306913
5.900;2.164933;0.309392
5.910;2.172547;0.313355
5.920;2.179825;0.318843
5.930;2.186240;0.325596
5.940;2.191579;0.333086
5.950;2.195957;0.340666
5.960;2.199751;0.347782
5.970;2.203440;0.354123
5.980;2.207432;0.359626
5.990;2.211932;0.364345
6.000;2.216910;0.368297
6.010;2.222171;0.371395
6.020;2.227490;0.373511
6.030;2.232725;0.374631
6.040;2.237881;0.374982
6.050;2.243101;0.375038
6.060;2.248607;0.375343
6.070;2.254589;0.376237
6.080;2.261094;0.377633
6.090;2.267969;0.378997
6.100;2.274896;0.379553
6.110;2.281495;0.378606
6.120;2.287436;0.375815
6.130;2.292478;0.371277
6.140;2.296455;0.365400
6.150;2.299239;0.358644
6.160;2.300716;0.351287
6.170;2.300821;0.343335
6.180;2.299582;0.334620
6.190;2.297182;0.324996
6.200;2.293972;0.314525
6.210;2.290437;0.303563
6.220;2.287092;0.292695
6.230;2.284353;0.282542
6.240;2.282433;0.273532
6.250;2.281319;0.265752
6.260;2.280821;0.258947
6.270;2.280639;0.252659
6.280;2.280406;0.246395
6.290;2.279689;0.239754
6.300;2.277992;0.232468
6.310;2.274809;0.224387
6.320;2.269748;0.215454
6.330;2.262685;0.205679
6.340;2.253871;0.195151
6.350;2.243934;0.184071
6.360;2.233761;0.172788
6.370;2.224332;0.161778
6.380;2.216557;0.151562
6.390;2.211168;0.142581
6.400;2.208647;0.135100
6.410;2.209156;0.129157
6.420;2.212489;0.124602
6.430;2.218080;0.121169
6.440;2.225133;0.118583
6.450;2.232829;0.116635
6.460;2.240560;0.115204
6.470;2.248078;0.114249
6.480;2.255512;0.113790
6.490;2.263260;0.113929
6.500;2.271798;0.114891
6.510;2.281460;0.117013
6.520;2.292246;0.120644
6.530;2.303767;0.125947
6.540;2.315332;0.132716
6.550;2.326148;0.140322
6.560;2.335557;0.147843
6.570;2.343197;0.154336
6.580;2.349061;0.159158
6.590;2.353441;0.162173
6.600;2.356794;0.163791
6.610;2.359612;0.164826
6.620;2.362325;0.166233
6.630;2.365262;0.168797
6.640;2.368635;0.172889
6.650;2.372551;0.178377
6.660;2.377019;0.184727
6.670;2.381986;0.191234
6.680;2.387366;0.197249
6.690;2.393052;0.202341
6.700;2.398919;0.206351
6.710;2.404822;0.209369
6.720;2.410601;0.211660
6.730;2.416087;0.213555
6.740;2.421117;0.215310
6.750;2.425531;0.216997
6.760;2.429193;0.218491
6.770;2.432028;0.219581
6.780;2.434105;0.220153
6.790;2.435703;0.220368
6.800;2.437323;0.220711
6.810;2.439602;0.221850
6.820;2.443140;0.224365
6.830;2.448315;0.228456
6.840;2.455157;0.233822
6.850;2.463315;0.239753
6.860;2.472137;0.245411
6.870;2.480819;0.250141
6.880;2.488618;0.253686
6.890;2.495062;0.256229
6.900;2.500096;0.258278
6.910;2.504117;0.260442
6.920;2.507853;0.263208
6.930;2.512128;0.266819
6.940;2.517570;0.271294
6.950;2.524391;0.276539
6.960;2.532339;0.282413
6.970;2.540829;0.288716
6.980;2.549206;0.295115
6.990;2.557015;0.301123
7.000;2.564173;0.306198
7.010;2.570968;0.309919
7.020;2.577870;0.312137
7.030;2.585263;0.313024
7.040;2.593216;0.312985
7.050;2.601443;0.312505
7.060;2.609452;0.312009
7.070;2.616780;0.311796
7.080;2.623177;0.312056
7.090;2.628635;0.312925
7.100;2.633281;0.314523
7.110;2.637249;0.316929
7.120;2.640632;0.320113
7.130;2.643542;0.323850
7.140;2.646211;0.327719
7.150;2.649040;0.331204
7.160;2.652520;0.333867
7.170;2.657061;0.335494
7.180;2.662786;0.336134
7.190;2.669411;0.336037
7.200;2.676230;0.335522
7.210;2.682232;0.334843
7.220;2.686321;0.334096
7.230;2.687578;0.333201
7.240;2.685494;0.331957
7.250;2.680119;0.330120
7.260;2.672049;0.327477
7.270;2.662263;0.323900
7.280;2.651854;0.319391
7.290;2.641763;0.314134
7.300;2.632618;0.308498
7.310;2.624710;0.302941
7.320;2.618094;0.297822
7.330;2.612714;0.293224
7.340;2.608493;0.288886
7.350;2.605324;0.284328
7.360;2.603013;0.279064
7.370;2.601236;0.272826
7.380;2.599570;0.265657
7.390;2.597606;0.257877
7.400;2.595069;0.249912
7.410;2.591880;0.242080
7.420;2.588143;0.234446
7.430;2.584072;0.226816
7.440;2.579911;0.218876
7.450;2.575875;0.210352
7.460;2.572116;0.201138
7.470;2.568707;0.191301
7.480;2.565607;0.181026
7.490;2.562647;0.170539
7.500;2.559557;0.160081
7.510;2.556045;0.149931
7.520;2.551893;0.140435
7.530;2.547019;0.131966
7.540;2.541462;0.124814
7.550;2.535312;0.119047
7.560;2.528610;0.114439
7.570;2.521282;0.110522
7.580;2.513164;0.106736
7.590;2.504096;0.102623
7.600;2.494045;0.097973
7.610;2.483164;0.092870
7.620;2.471757;0.087614
7.630;2.460192;0.082528
7.640;2.448802;0.077761
7.650;2.437835;0.073215
7.660;2.427431;0.068675
7.670;2.417620;0.064048
7.680;2.408318;0.059544
7.690;2.399314;0.055657
7.700;2.390283;0.052947
7.710;2.380842;0.051741
7.720;2.370631;0.051926
7.730;2.359409;0.052935
7.740;2.347109;0.053915
7.750;2.333847;0.054003
7.760;2.319884;0.052581
7.770;2.305552;0.049453
7.780;2.291178;0.044877
7.790;2.277009;0.039481
7.800;2.263153;0.034065
7.810;2.249572;0.029353
7.820;2.236174;0.025760
7.830;2.222973;0.023294
7.840;2.210227;0.021614
7.850;2.198451;0.020238
7.860;2.188293;0.018797
7.870;2.180353;0.017183
7.880;2.175024;0.015555
7.890;2.172424;0.014212
7.900;2.172372;0.013455
7.910;2.174407;0.013504
7.920;2.177850;0.014456
7.930;2.181909;0.016257
7.940;2.185842;0.018666
7.950;2.189114;0.021266
7.960;2.191516;0.023554
7.970;2.193186;0.025082
7.980;2.194533;0.025594
7.990;2.196086;0.025075
8.000;2.198307;0.023734
8.010;2.201441;0.021928
8.020;2.205429;0.020086
8.030;2.209934;0.018600
8.040;2.214449;0.017713
8.050;2.218442;0.017402
8.060;2.221506;0.017341
8.070;2.223443;0.017004
8.080;2.224287;0.015865
8.090;2.224258;0.013634
8.100;2.223667;0.010407
8.110;2.222807;0.006669
8.120;2.221857;0.003124
8.130;2.220829;0.000435
8.140;2.219593;-0.001017
8.150;2.217991;-0.001249
8.160;2.215983;-0.000617
8.170;2.213760;0.000357
8.180;2.211759;0.001198
8.190;2.210573;0.001635
8.200;2.210817;0.001642
8.210;2.212955;0.001374
8.220;2.217178;0.001038
8.230;2.223343;0.000783
8.240;2.231009;0.000638
8.250;2.239536;0.000546
8.260;2.248214;0.000422
8.270;2.256384;0.000218
8.280;2.263564;-0.000085
8.290;2.269528;-0.000509
8.300;2.274365;-0.001120
8.310;2.278449;-0.001997
