Time[s];COPx[cm];COPy[cm]
0.010;-3.428723;1.303344
0.020;-3.417791;1.302992
0.030;-3.406082;1.303025
0.040;-3.392836;1.303750
0.050;-3.377370;1.305279
0.060;-3.359182;1.307532
0.070;-3.338057;1.310314
0.080;-3.314128;1.313396
0.090;-3.287867;1.316589
0.100;-3.260016;1.319761
0.110;-3.231477;1.322846
0.120;-3.203192;1.325827
0.130;-3.176042;1.328730
0.140;-3.150777;1.331631
0.150;-3.127976;1.334662
0.160;-3.108018;1.338023
0.170;-3.091075;1.341964
0.180;-3.077153;1.346721
0.190;-3.066173;1.352428
0.200;-3.058053;1.359029
0.210;-3.052737;1.366260
0.220;-3.050151;1.373674
0.230;-3.050140;1.380738
0.240;-3.052428;1.386936
0.250;-3.056654;1.391895
0.260;-3.062470;1.395483
0.270;-3.069650;1.397873
0.280;-3.078145;1.399542
0.290;-3.088051;1.401203
0.300;-3.099531;1.403659
0.310;-3.112704;1.407601
0.320;-3.127552;1.413400
0.330;-3.143850;1.420995
0.340;-3.161121;1.429909
0.350;-3.178662;1.439394
0.360;-3.195666;1.448624
0.370;-3.211461;1.456893
0.380;-3.225761;1.463743
0.390;-3.238799;1.469015
0.400;-3.251207;1.472809
0.410;-3.263699;1.475397
0.420;-3.276690;1.477129
0.430;-3.290030;1.478360
0.440;-3.302958;1.479405
0.450;-3.314280;1.480504
0.460;-3.322670;1.481804
0.470;-3.326971;1.483347
0.480;-3.326447;1.485074
0.490;-3.320938;1.486835
0.500;-3.310882;1.488412
0.510;-3.297190;1.489536
0.520;-3.280972;1.489934
0.530;-3.263238;1.489401
0.540;-3.244672;1.487877
0.550;-3.225535;1.485474
0.560;-3.205682;1.482433
0.570;-3.184676;1.479021
0.580;-3.161983;1.475401
0.590;-3.137199;1.471548
0.600;-3.110252;1.467267
0.610;-3.081477;1.462308
0.620;-3.051546;1.456545
0.630;-3.021342;1.450119
0.640;-2.991858;1.443436
0.650;-2.964154;1.437011
0.660;-2.939327;1.431219
0.670;-2.918454;1.426105
0.680;-2.902475;1.421367
0.690;-2.892052;1.416493
0.700;-2.887448;1.410975
0.710;-2.888495;1.404471
0.720;-2.894663;1.396883
0.730;-2.905189;1.388343
0.740;-2.919219;1.379139
0.750;-2.935866;1.369593
0.760;-2.954235;1.359924
0.770;-2.973462;1.350159
0.780;-2.992839;1.340136
0.790;-3.012014;1.329622
0.800;-3.031165;1.318461
0.810;-3.051007;1.306674
0.820;-3.072598;1.294495
0.830;-3.096985;1.282349
0.840;-3.124809;1.270810
0.850;-3.156018;1.260536
0.860;-3.189765;1.252175
0.870;-3.224506;1.246252
0.880;-3.258292;1.243066
0.890;-3.289195;1.242633
0.900;-3.315777;1.244682
0.910;-3.337438;1.248718
0.920;-3.354509;1.254140
0.930;-3.368029;1.260400
0.940;-3.379318;1.267146
0.950;-3.389538;1.274293
0.960;-3.399399;1.281996
0.970;-3.409073;1.290510
0.980;-3.418283;1.300006
0.990;-3.426521;1.310397
1.000;-3.433317;1.321267
1.010;-3.438494;1.331959
1.020;-3.442279;1.341790
1.030;-3.445243;1.350273
1.040;-3.448079;1.357234
1.050;-3.451343;1.362766
1.060;-3.455292;1.367099
1.070;-3.459877;1.370454
1.080;-3.464857;1.372982
1.090;-3.469976;1.374759
1.100;-3.475123;1.375809
1.110;-3.480443;1.376122
1.120;-3.486351;1.375666
1.130;-3.493461;1.374432
1.140;-3.502431;1.372498
1.150;-3.513786;1.370065
1.160;-3.527759;1.367444
1.170;-3.544216;1.364959
1.180;-3.562681;1.362835
1.190;-3.582443;1.361100
1.200;-3.602688;1.359539
1.210;-3.622637;1.357724
1.220;-3.641686;1.355122
1.230;-3.659524;1.351281
1.240;-3.676212;1.346025
1.250;-3.692166;1.339584
1.260;-3.708037;1.332573
1.270;-3.724518;1.325850
1.280;-3.742152;1.320307
1.290;-3.761227;1.316676
1.300;-3.781780;1.315381
1.310;-3.803682;1.316474
1.320;-3.826732;1.319669
1.330;-3.850706;1.324477
1.340;-3.875344;1.330377
1.350;-3.900305;1.336961
1.360;-3.925147;1.343977
1.370;-3.949339;1.351311
1.380;-3.972326;1.358897
1.390;-3.993635;1.366634
1.400;-4.012995;1.374323
1.410;-4.030436;1.381636
1.420;-4.046312;1.388131
1.430;-4.061222;1.393333
1.440;-4.075853;1.396895
1.450;-4.090807;1.398789
1.460;-4.106473;1.399407
1.470;-4.122976;1.399468
1.480;-4.140190;1.399731
1.490;-4.157773;1.400648
1.500;-4.175198;1.402132
1.510;-4.191759;1.403556
1.520;-4.206584;1.403990
1.530;-4.218685;1.402541
1.540;-4.227085;1.398640
1.550;-4.231018;1.392159
1.560;-4.230153;1.383390
1.570;-4.224761;1.372960
1.580;-4.215715;1.361763
1.590;-4.204294;1.350886
1.600;-4.191855;1.341460
1.610;-4.179522;1.334405
1.620;-4.168017;1.330140
1.630;-4.157671;1.328417
1.640;-4.148572;1.328367
1.650;-4.140742;1.328755
1.660;-4.134266;1.328330
1.670;-4.129366;1.326187
1.680;-4.126419;1.322013
1.690;-4.125924;1.316175
1.700;-4.128389;1.309562
1.710;-4.134177;1.303287
1.720;-4.143365;1.298330
1.730;-4.155697;1.295276
1.740;-4.170639;1.294207
1.750;-4.187473;1.294746
1.760;-4.205393;1.296212
1.770;-4.223584;1.297843
1.780;-4.241313;1.299033
1.790;-4.258037;1.299506
1.800;-4.273515;1.299347
1.810;-4.287871;1.298871
1.820;-4.301587;1.298415
1.830;-4.315404;1.298163
1.840;-4.330129;1.298080
1.850;-4.346406;1.297971
1.860;-4.364519;1.297611
1.870;-4.384330;1.296876
1.880;-4.405391;1.295814
1.890;-4.427162;1.294649
1.900;-4.449207;1.293719
1.910;-4.471244;1.293400
1.920;-4.493042;1.293983
1.930;-4.514203;1.295583
1.940;-4.533970;1.298093
1.950;-4.551168;1.301244
1.960;-4.564349;1.304733
1.970;-4.572114;1.308342
1.980;-4.573509;1.311974
1.990;-4.568355;1.315607
2.000;-4.557399;1.319229
2.010;-4.542195;1.322826
2.020;-4.524702;1.326427
2.030;-4.506685;1.330173
2.040;-4.489142;1.334344
2.050;-4.471967;1.339309
2.060;-4.454002;1.345422
2.070;-4.433451;1.352934
2.080;-4.408492;1.361952
2.090;-4.377882;1.372443
2.100;-4.341348;1.384224
2.110;-4.299670;1.396933
2.120;-4.254468;1.410024
2.130;-4.207784;1.422841
2.140;-4.161646;1.434786
2.150;-4.117762;1.445493
2.160;-4.077404;1.454898
2.170;-4.041439;1.463161
2.180;-4.010383;1.470500
2.190;-3.984394;1.477011
2.200;-3.963196;1.482581
2.210;-3.946018;1.486911
2.220;-3.931632;1.489651
2.230;-3.918562;1.490582
2.240;-3.905414;1.489762
2.250;-3.891260;1.487535
2.260;-3.875907;1.484388
2.270;-3.859938;1.480722
2.280;-3.844503;1.476685
2.290;-3.830963;1.472142
2.300;-3.820522;1.466790
2.310;-3.813962;1.460319
2.320;-3.811543;1.452526
2.330;-3.813082;1.443350
2.340;-3.818137;1.432855
2.350;-3.826207;1.421203
2.360;-3.836850;1.408613
2.370;-3.849697;1.395313
2.380;-3.864398;1.381466
2.390;-3.880543;1.367104
2.400;-3.897607;1.352098
2.410;-3.914962;1.336202
2.420;-3.931981;1.319161
2.430;-3.948180;1.300811
2.440;-3.963346;1.281129
2.450;-3.977548;1.260198
2.460;-3.991047;1.238122
2.470;-4.004103;1.214958
2.480;-4.016796;1.190721
2.490;-4.028903;1.165498
2.500;-4.039894;1.139609
2.510;-4.049067;1.113703
2.520;-4.055769;1.088730
2.530;-4.059616;1.065780
2.540;-4.060602;1.045881
2.550;-4.059049;1.029814
2.560;-4.055429;1.017980
2.570;-4.050187;1.010317
2.580;-4.043668;1.006307
2.590;-4.036176;1.005070
2.600;-4.028092;1.005542
2.610;-4.019937;1.006705
2.620;-4.012327;1.007779
2.630;-4.005847;1.008359
2.640;-4.000925;1.008435
2.650;-3.997748;1.008322
2.660;-3.996250;1.008550
2.670;-3.996136;1.009737
2.680;-3.996972;1.012446
2.690;-3.998284;1.017039
2.700;-3.999658;1.023553
2.710;-4.000787;1.031669
2.720;-4.001484;1.040804
2.730;-4.001684;1.050275
2.740;-4.001436;1.059461
2.750;-4.000882;1.067890
2.760;-4.000208;1.075252
2.770;-3.999557;1.081388
2.780;-3.998950;1.086285
2.790;-3.998227;1.090075
2.800;-3.997055;1.093005
2.810;-3.994993;1.095367
2.820;-3.991601;1.097436
2.830;-3.986554;1.099440
2.840;-3.979698;1.101598
2.850;-3.971045;1.104140
2.860;-3.960727;1.107289
2.870;-3.948947;1.111171
2.880;-3.935992;1.115709
2.890;-3.922287;1.120576
2.900;-3.908441;1.125227
2.910;-3.895180;1.129009
2.920;-3.883195;1.131296
2.930;-3.872969;1.131634
2.940;-3.864708;1.129849
2.950;-3.858400;1.126123
2.960;-3.853953;1.121006
2.970;-3.851273;1.115337
2.980;-3.850241;1.110060
2.990;-3.850612;1.105984
3.000;-3.851955;1.103575
3.010;-3.853707;1.102835
3.020;-3.855328;1.103284
3.030;-3.856454;1.104045
3.040;-3.856947;1.104056
3.050;-3.856835;1.102368
3.060;-3.856218;1.098468
3.070;-3.855186;1.092480
3.080;-3.853801;1.085142
3.090;-3.852082;1.077580
3.100;-3.850020;1.070974
3.110;-3.847601;1.066234
3.120;-3.844863;1.063806
3.130;-3.841934;1.063655
3.140;-3.839015;1.065383
3.150;-3.836268;1.068425
3.160;-3.833666;1.072225
3.170;-3.830878;1.076331
3.180;-3.827301;1.080427
3.190;-3.822248;1.084326
3.200;-3.815205;1.087954
3.210;-3.806020;1.091335
3.220;-3.794930;1.094566
3.230;-3.782429;1.097778
3.240;-3.769050;1.101100
3.250;-3.755168;1.104615
3.260;-3.740873;1.108322
3.270;-3.725955;1.112103
3.280;-3.709994;1.115756
3.290;-3.692549;1.119094
3.300;-3.673381;1.122078
3.310;-3.652620;1.124899
3.320;-3.630791;1.127960
3.330;-3.608697;1.131776
3.340;-3.587193;1.136830
3.350;-3.566969;1.143440
3.360;-3.548424;1.151656
3.370;-3.531647;1.161197
3.380;-3.516485;1.171480
3.390;-3.502627;1.181763
3.400;-3.489668;1.191364
3.410;-3.477164;1.199874
3.420;-3.464708;1.207255
3.430;-3.452068;1.213792
3.440;-3.439311;1.219923
3.450;-3.426842;1.226033
3.460;-3.415320;1.232307
3.470;-3.405458;1.238702
3.480;-3.397816;1.245013
3.490;-3.392629;1.250987
3.500;-3.389750;1.256396
3.510;-3.388707;1.261069
3.520;-3.388865;1.264907
3.530;-3.389615;1.267888
3.540;-3.390507;1.270060
3.550;-3.391301;1.271511
3.560;-3.391945;1.272326
3.570;-3.392545;1.272554
3.580;-3.393353;1.272196
3.590;-3.394763;1.271212
3.600;-3.397276;1.269526
3.610;-3.401384;1.267013
3.620;-3.407415;1.263497
3.630;-3.415397;1.258791
3.640;-3.425007;1.252782
3.650;-3.435648;1.245516
3.660;-3.446618;1.237234
3.670;-3.457325;1.228332
3.680;-3.467470;1.219289
3.690;-3.477099;1.210570
3.700;-3.486521;1.202550
3.710;-3.496105;1.195467
3.720;-3.506063;1.189447
3.730;-3.516305;1.184589
3.740;-3.526437;1.181033
3.750;-3.535896;1.178941
3.760;-3.544190;1.178374
3.770;-3.551124;1.179161
3.780;-3.556918;1.180864
3.790;-3.562148;1.182883
3.800;-3.567522;1.184629
3.810;-3.573586;1.185700
3.820;-3.580499;1.186007
3.830;-3.587992;1.185789
3.840;-3.595502;1.185509
3.850;-3.602436;1.185676
3.860;-3.608404;1.186658
3.870;-3.613364;1.188612
3.880;-3.617597;1.191553
3.890;-3.621541;1.195502
3.900;-3.625562;1.200599
3.910;-3.629747;1.207082
3.920;-3.633842;1.215171
3.930;-3.637349;1.224917
3.940;-3.639730;1.236122
3.950;-3.640629;1.248371
3.960;-3.640006;1.261130
3.970;-3.638149;1.273868
3.980;-3.635542;1.286142
3.990;-3.632700;1.297642
4.000;-3.630035;1.308188
4.010;-3.627813;1.317707
4.020;-3.626163;1.326210
4.030;-3.625098;1.333762
4.040;-3.624514;1.340436
4.050;-3.624197;1.346238
4.060;-3.623872;1.351032
4.070;-3.623277;1.354499
4.080;-3.622254;1.356180
4.090;-3.620785;1.355627
4.100;-3.618985;1.352627
4.110;-3.617053;1.347399
4.120;-3.615219;1.340630
4.130;-3.613697;1.333315
4.140;-3.612657;1.326455
4.150;-3.612206;1.320751
4.160;-3.612390;1.316438
4.170;-3.613195;1.313259
4.180;-3.614547;1.310581
4.190;-3.616327;1.307583
4.200;-3.618425;1.303472
4.210;-3.620824;1.297674
4.220;-3.623676;1.289963
4.230;-3.627305;1.280514
4.240;-3.632116;1.269872
4.250;-3.638425;1.258831
4.260;-3.646295;1.248233
4.270;-3.655427;1.238723
4.280;-3.665174;1.230555
4.290;-3.674675;1.223523
4.300;-3.683075;1.217066
4.310;-3.689726;1.210497
4.320;-3.694277;1.203271
4.330;-3.696631;1.195183
4.340;-3.696805;1.186458
4.350;-3.694823;1.177699
4.360;-3.690722;1.169721
4.370;-3.684655;1.163315
4.380;-3.677031;1.159023
4.390;-3.668548;1.157014
4.400;-3.660092;1.157088
4.410;-3.652507;1.158788
4.420;-3.646345;1.161539
4.430;-3.641720;1.164767
4.440;-3.638313;1.167971
4.450;-3.635535;1.170765
4.460;-3.632762;1.172931
4.470;-3.629540;1.174464
4.480;-3.625690;1.175610
4.490;-3.621270;1.176848
4.500;-3.616443;1.178790
4.510;-3.611327;1.182027
4.520;-3.605908;1.186923
4.530;-3.600057;1.193461
4.540;-3.593657;1.201195
4.550;-3.586791;1.209370
4.560;-3.579888;1.217161
4.570;-3.573724;1.223912
4.580;-3.569270;1.229278
4.590;-3.567410;1.233244
4.600;-3.568682;1.236032
4.610;-3.573100;1.237983
4.620;-3.580125;1.239434
4.630;-3.588778;1.240664
4.640;-3.597881;1.241913
4.650;-3.606356;1.243425
4.660;-3.613477;1.245486
4.670;-3.618970;1.248385
4.680;-3.622966;1.252347
4.690;-3.625860;1.257463
4.700;-3.628160;1.263676
4.710;-3.630377;1.270810
4.720;-3.632934;1.278609
4.730;-3.636087;1.286761
4.740;-3.639862;1.294918
4.750;-3.644031;1.302713
4.760;-3.648144;1.309797
4.770;-3.651619;1.315854
4.780;-3.653865;1.320623
4.790;-3.654420;1.323924
4.800;-3.653069;1.325705
4.810;-3.649885;1.326069
4.820;-3.645191;1.325252
4.830;-3.639488;1.323559
4.840;-3.633374;1.321279
4.850;-3.627487;1.318617
4.860;-3.622450;1.315630
4.870;-3.618807;1.312195
4.880;-3.616941;1.308038
4.890;-3.617006;1.302837
4.900;-3.618902;1.296381
4.910;-3.622315;1.288704
4.920;-3.626809;1.280156
4.930;-3.631918;1.271369
4.940;-3.637215;1.263146
4.950;-3.642376;1.256286
4.960;-3.647232;1.251375
4.970;-3.651810;1.248595
4.980;-3.656321;1.247628
4.990;-3.661064;1.247704
5.000;-3.666287;1.247840
5.010;-3.672081;1.247163
5.020;-3.678390;1.245201
5.030;-3.685155;1.242012
5.040;-3.692494;1.238133
5.050;-3.700787;1.234414
5.060;-3.710577;1.231791
5.070;-3.722325;1.231032
5.080;-3.736149;1.232479
5.090;-3.751664;1.235898
5.100;-3.767999;1.240542
5.110;-3.783961;1.245447
5.120;-3.798273;1.249854
5.130;-3.809827;1.253559
5.140;-3.817926;1.257027
5.150;-3.822445;1.261222
5.160;-3.823861;1.267212
5.170;-3.823109;1.275723
5.180;-3.821313;1.286838
5.190;-3.819488;1.299966
5.200;-3.818309;1.314071
5.210;-3.818022;1.328036
5.220;-3.818471;1.340978
5.230;-3.819239;1.352419
5.240;-3.819843;1.362272
5.250;-3.819919;1.370731
5.260;-3.819328;1.378125
5.270;-3.818128;1.384805
5.280;-3.816460;1.391079
5.290;-3.814430;1.397167
5.300;-3.812068;1.403157
5.310;-3.809377;1.408978
5.320;-3.806414;1.414395
5.330;-3.803328;1.419043
5.340;-3.800301;1.422510
5.350;-3.797415;1.424459
5.360;-3.794535;1.424757
5.370;-3.791279;1.423550
5.380;-3.787116;1.421256
5.390;-3.781566;1.418468
5.400;-3.774375;1.415786
5.410;-3.765588;1.413646
5.420;-3.755503;1.412204
5.430;-3.744569;1.411320
5.440;-3.733288;1.410664
5.450;-3.722131;1.409871
5.460;-3.711456;1.408694
5.470;-3.701438;1.407059
5.480;-3.692065;1.405042
5.490;-3.683215;1.402767
5.500;-3.674827;1.400358
5.510;-3.667067;1.397953
5.520;-3.660383;1.395778
5.530;-3.655407;1.394153
5.540;-3.652723;1.393391
5.550;-3.652635;1.393646
5.560;-3.655021;1.394824
5.570;-3.659334;1.396630
5.580;-3.664711;1.398726
5.590;-3.670155;1.400928
5.600;-3.674712;1.403328
5.610;-3.677603;1.406278
5.620;-3.678297;1.410220
5.630;-3.676544;1.415450
5.640;-3.672423;1.421941
5.650;-3.666361;1.429295
5.660;-3.659097;1.436855
5.670;-3.651557;1.443902
5.680;-3.644641;1.449859
5.690;-3.639015;1.454451
5.700;-3.634964;1.457780
5.710;-3.632361;1.460310
5.720;-3.630754;1.462767
5.730;-3.629537;1.465923
5.740;-3.628166;1.470353
5.750;-3.626316;1.476232
5.760;-3.623955;1.483291
5.770;-3.621290;1.490947
5.780;-3.618609;1.498512
5.790;-3.616095;1.505387
5.800;-3.613665;1.511182
5.810;-3.610928;1.515765
5.820;-3.607284;1.519271
5.830;-3.602142;1.522073
5.840;-3.595150;1.524754
5.850;-3.586355;1.528051
5.860;-3.576228;1.532746
5.870;-3.565529;1.539475
5.880;-3.555070;1.548513
5.890;-3.545476;1.559615
5.900;-3.537050;1.572005
5.910;-3.529796;1.584530
5.920;-3.523564;1.595916
5.930;-3.518215;1.605065
5.940;-3.513718;1.611307
5.950;-3.510125;1.614536
5.960;-3.507482;1.615205
5.970;-3.505716;1.614139
5.980;-3.504572;1.612249
5.990;-3.503596;1.610249
6.000;-3.502185;1.608498
6.010;-3.499717;1.607009
6.020;-3.495724;1.605599
6.030;-3.490050;1.604084
6.040;-3.482915;1.602436
6.050;-3.474845;1.600839
6.060;-3.466483;1.599615
6.070;-3.458375;1.599047
6.080;-3.450831;1.599173
6.090;-3.443891;1.599656
6.100;-3.437395;1.599815
6.110;-3.431086;1.598854
6.120;-3.424718;1.596174
6.130;-3.418149;1.591641
6.140;-3.411405;1.585650
6.150;-3.404688;1.578969
6.160;-3.398335;1.572442
6.170;-3.392724;1.566690
6.180;-3.388167;1.561943
6.190;-3.384813;1.558054
6.200;-3.382573;1.554656
6.210;-3.381093;1.551380
6.220;-3.379785;1.548030
6.230;-3.377934;1.544668
6.240;-3.374883;1.541585
6.250;-3.370229;1.539203
6.260;-3.363961;1.537917
6.270;-3.356473;1.537942
6.280;-3.348443;1.539214
6.290;-3.340620;1.541394
6.300;-3.333613;1.543974
6.310;-3.327779;1.546419
6.320;-3.323240;1.548285
6.330;-3.319997;1.549258
6.340;-3.318064;1.549142
6.350;-3.317530;1.547836
6.360;-3.318516;1.545331
6.370;-3.321023;1.541725
6.380;-3.324775;1.537241
6.390;-3.329130;1.532212
6.400;-3.333155;1.527039
6.410;-3.335850;1.522131
6.420;-3.336433;1.517845
6.430;-3.334586;1.514418
6.440;-3.330549;1.511916
6.450;-3.325030;1.510193
6.460;-3.318955;1.508897
6.470;-3.313156;1.507546
6.480;-3.308120;1.505656
6.490;-3.303876;1.502885
6.500;-3.300050;1.499120
6.510;-3.296087;1.494462
6.520;-3.291517;1.489119
6.530;-3.286182;1.483270
6.540;-3.280301;1.476994
6.550;-3.274352;1.470290
6.560;-3.268854;1.463171
6.570;-3.264132;1.455776
6.580;-3.260212;1.448430
6.590;-3.256860;1.441614
6.600;-3.253770;1.435825
6.610;-3.250757;1.431363
6.620;-3.247874;1.428145
6.630;-3.245393;1.425646
6.640;-3.243685;1.423025
6.650;-3.243081;1.419403
6.660;-3.243787;1.414159
6.670;-3.245879;1.407111
6.680;-3.249343;1.398519
6.690;-3.254089;1.388932
6.700;-3.259912;1.378965
6.710;-3.266438;1.369135
6.720;-3.273143;1.359799
6.730;-3.279471;1.351187
6.740;-3.285028;1.343474
6.750;-3.289722;1.336800
6.760;-3.293797;1.331258
6.770;-3.297716;1.326842
6.780;-3.301984;1.323415
6.790;-3.306971;1.320721
6.800;-3.312836;1.318425
6.810;-3.319545;1.316175
6.820;-3.326945;1.313665
6.830;-3.334819;1.310693
6.840;-3.342905;1.307220
6.850;-3.350883;1.303397
6.860;-3.358399;1.299528
6.870;-3.365141;1.295957
6.880;-3.370925;1.292914
6.890;-3.375757;1.290431
6.900;-3.379847;1.288388
6.910;-3.383568;1.286656
6.920;-3.387365;1.285206
6.930;-3.391617;1.284132
6.940;-3.396475;1.283556
6.950;-3.401752;1.283512
6.960;-3.406957;1.283851
6.970;-3.411469;1.284224
6.980;-3.414793;1.284158
6.990;-3.416766;1.283200
7.000;-3.417630;1.281088
7.010;-3.417948;1.277871
7.020;-3.418422;1.273934
7.030;-3.419677;1.269922
7.040;-3.422048;1.266578
7.050;-3.425437;1.264560
7.060;-3.429277;1.264282
7.070;-3.432642;1.265819
7.080;-3.434489;1.268899
7.090;-3.433935;1.272979
7.100;-3.430495;1.277393
7.110;-3.424228;1.281536
7.120;-3.415759;1.285005
7.130;-3.406138;1.287643
7.140;-3.396586;1.289490
7.150;-3.388166;1.290646
7.160;-3.381528;1.291144
7.170;-3.376818;1.290881
7.180;-3.373786;1.289674
7.190;-3.372040;1.287410
7.200;-3.371310;1.284210
7.210;-3.371603;1.280479
7.220;-3.373187;1.276791
7.230;-3.376414;1.273664
7.240;-3.381490;1.271320
7.250;-3.388281;1.269591
7.260;-3.396242;1.268004
7.270;-3.404515;1.266021
7.280;-3.412186;1.263310
7.290;-3.418607;1.259898
7.300;-3.423642;1.256165
7.310;-3.427735;1.252659
7.320;-3.431793;1.249837
7.330;-3.436954;1.247863
7.340;-3.444327;1.246544
7.350;-3.454756;1.245411
7.360;-3.468658;1.243895
7.370;-3.485947;1.241530
7.380;-3.506071;1.238101
7.390;-3.528155;1.233718
7.400;-3.551148;1.228795
7.410;-3.573952;1.223947
7.420;-3.595498;1.219838
7.430;-3.614815;1.217000
7.440;-3.631123;1.215668
7.450;-3.643948;1.215685
7.460;-3.653211;1.216505
7.470;-3.659280;1.217340
7.480;-3.662941;1.217402
7.490;-3.665291;1.216159
7.500;-3.667516;1.213473
7.510;-3.670617;1.209558
7.520;-3.675193;1.204777
7.530;-3.681359;1.199422
7.540;-3.688846;1.193607
7.550;-3.697178;1.187314
7.560;-3.705846;1.180555
7.570;-3.714396;1.173503
7.580;-3.722473;1.166513
7.590;-3.729838;1.159983
7.600;-3.736367;1.154161
7.610;-3.742022;1.149014
7.620;-3.746779;1.144271
7.630;-3.750557;1.139589
7.640;-3.753223;1.134777
7.650;-3.754690;1.129919
7.660;-3.755081;1.125347
7.670;-3.754819;1.121458
7.680;-3.754562;1.118489
7.690;-3.755002;1.116368
7.700;-3.756653;1.114695
7.710;-3.759750;1.112861
7.720;-3.764255;1.110241
7.730;-3.769921;1.106422
7.740;-3.776343;1.101401
7.750;-3.783018;1.095672
7.760;-3.789446;1.090125
7.770;-3.795271;1.085750
7.780;-3.800408;1.083254
7.790;-3.805086;1.082765
7.800;-3.809780;1.083766
7.810;-3.815034;1.085270
7.820;-3.821279;1.086188
7.830;-3.828696;1.085724
7.840;-3.837173;1.083639
7.850;-3.846349;1.080280
7.860;-3.855705;1.076387
7.870;-3.864645;1.072767
7.880;-3.872567;1.070005
7.890;-3.878922;1.068312
7.900;-3.883298;1.067545
7.910;-3.885519;1.067359
7.920;-3.885746;1.067412
7.930;-3.884520;1.067538
7.940;-3.882699;1.067827
7.950;-3.881284;1.068586
7.960;-3.881162;1.070200
7.970;-3.882873;1.072973
7.980;-3.886503;1.076991
