Time[s];COPx[cm];COPy[cm]
0.010;-4.807721;1.856646
0.020;-4.860365;1.832776
0.030;-4.908846;1.809020
0.040;-4.950236;1.785488
0.050;-4.983484;1.762230
0.060;-5.009457;1.739199
0.070;-5.030441;1.716205
0.080;-5.049381;1.692936
0.090;-5.069123;1.669047
0.100;-5.091867;1.644311
0.110;-5.118911;1.618772
0.120;-5.150683;1.592851
0.130;-5.186989;1.567339
0.140;-5.227319;1.543273
0.150;-5.271056;1.521733
0.160;-5.317426;1.503638
0.170;-5.365222;1.489588
0.180;-5.412464;1.479788
0.190;-5.456251;1.474056
0.200;-5.493022;1.471911
0.210;-5.519209;1.472745
0.220;-5.532099;1.476033
0.230;-5.530573;1.481492
0.240;-5.515450;1.489109
0.250;-5.489315;1.499017
0.260;-5.455907;1.511267
0.270;-5.419302;1.525588
0.280;-5.383095;1.541237
0.290;-5.349777;1.557042
0.300;-5.320386;1.571654
0.310;-5.294496;1.583948
0.320;-5.270552;1.593425
0.330;-5.246495;1.600447
0.340;-5.220472;1.606190
0.350;-5.191390;1.612314
0.360;-5.159108;1.620482
0.370;-5.124183;1.631863
0.380;-5.087314;1.646775
0.390;-5.048708;1.664536
0.400;-5.007669;1.683578
0.410;-4.962618;1.701771
0.420;-4.911549;1.716850
0.430;-4.852790;1.726822
0.440;-4.785766;1.730261
0.450;-4.711490;1.726473
0.460;-4.632633;1.715486
0.470;-4.553114;1.697886
0.480;-4.477357;1.674536
0.490;-4.409364;1.646287
0.500;-4.351853;1.613812
0.510;-4.305667;1.577596
0.520;-4.269687;1.538071
0.530;-4.241314;1.495809
0.540;-4.217435;1.451698
0.550;-4.195536;1.407011
0.560;-4.174512;1.363317
0.570;-4.154864;1.322263
0.580;-4.138187;1.285309
0.590;-4.126243;1.253504
0.600;-4.120007;1.227377
0.610;-4.119131;1.206951
0.620;-4.121996;1.191836
0.630;-4.126315;1.181308
0.640;-4.130015;1.174355
0.650;-4.132044;1.169709
0.660;-4.132789;1.165933
0.670;-4.133961;1.161581
0.680;-4.138004;1.155402
0.690;-4.147226;1.146505
0.700;-4.162945;1.134456
0.710;-4.184924;1.119321
0.720;-4.211284;1.101660
0.730;-4.238950;1.082453
0.740;-4.264460;1.062974
0.750;-4.284905;1.044625
0.760;-4.298672;1.028767
0.770;-4.305791;1.016579
0.780;-4.307762;1.008904
0.790;-4.306917;1.006123
0.800;-4.305507;1.008056
0.810;-4.304849;1.013975
0.820;-4.304825;1.022767
0.830;-4.303955;1.033212
0.840;-4.299981;1.044306
0.850;-4.290737;1.055504
0.860;-4.274932;1.066822
0.870;-4.252563;1.078754
0.880;-4.224880;1.092051
0.890;-4.194018;1.107397
0.900;-4.162553;1.125072
0.910;-4.133134;1.144730
0.920;-4.108224;1.165396
0.930;-4.089825;1.185723
0.940;-4.079131;1.204409
0.950;-4.076159;1.220578
0.960;-4.079565;1.233971
0.970;-4.086836;1.244913
0.980;-4.094897;1.254149
0.990;-4.100986;1.262659
1.000;-4.103490;1.271510
1.010;-4.102405;1.281700
1.020;-4.099239;1.293981
1.030;-4.096398;1.308661
1.040;-4.096296;1.325449
1.050;-4.100527;1.343418
1.060;-4.109357;1.361122
1.070;-4.121688;1.376846
1.080;-4.135472;1.388961
1.090;-4.148460;1.396281
1.100;-4.159028;1.398367
1.110;-4.166783;1.395650
1.120;-4.172711;1.389356
1.130;-4.178817;1.381239
1.140;-4.187431;1.373192
1.150;-4.200427;1.366841
1.160;-4.218631;1.363228
1.170;-4.241545;1.362652
1.180;-4.267412;1.364721
1.190;-4.293573;1.368561
1.200;-4.317013;1.373139
1.210;-4.334993;1.377598
1.220;-4.345658;1.381497
1.230;-4.348496;1.384921
1.240;-4.344506;1.388401
1.250;-4.335994;1.392690
1.260;-4.326021;1.398435
1.270;-4.317624;1.405853
1.280;-4.313046;1.414523
1.290;-4.313197;1.423409
1.300;-4.317494;1.431100
1.310;-4.324162;1.436187
1.320;-4.330886;1.437632
1.330;-4.335633;1.435035
1.340;-4.337345;1.428717
1.350;-4.336268;1.419632
1.360;-4.333831;1.409133
1.370;-4.332144;1.398682
1.380;-4.333292;1.389586
1.390;-4.338690;1.382814
1.400;-4.348687;1.378948
1.410;-4.362531;1.378213
1.420;-4.378667;1.380555
1.430;-4.395216;1.385699
1.440;-4.410450;1.393160
1.450;-4.423160;1.402232
1.460;-4.432855;1.412022
1.470;-4.439840;1.421604
1.480;-4.445127;1.430257
1.490;-4.450187;1.437691
1.500;-4.456575;1.444125
1.510;-4.465538;1.450126
1.520;-4.477703;1.456283
1.530;-4.492932;1.462863
1.540;-4.510350;1.469651
1.550;-4.528529;1.476051
1.560;-4.545752;1.481336
1.570;-4.560316;1.484868
1.580;-4.570816;1.486159
1.590;-4.576378;1.484821
1.600;-4.576817;1.480527
1.610;-4.572635;1.473097
1.620;-4.564875;1.462673
1.630;-4.554840;1.449856
1.640;-4.543774;1.435702
1.650;-4.532586;1.421534
1.660;-4.521643;1.408628
1.670;-4.510696;1.397930
1.680;-4.498961;1.389905
1.690;-4.485402;1.384550
1.700;-4.469164;1.381496
1.710;-4.450032;1.380116
1.720;-4.428744;1.379595
1.730;-4.407014;1.378985
1.740;-4.387189;1.377279
1.750;-4.371635;1.373527
1.760;-4.362050;1.366970
1.770;-4.358935;1.357156
1.780;-4.361388;1.343983
1.790;-4.367273;1.327692
1.800;-4.373714;1.308822
1.810;-4.377784;1.288155
1.820;-4.377227;1.266674
1.830;-4.371023;1.245494
1.840;-4.359624;1.225765
1.850;-4.344775;1.208536
1.860;-4.328995;1.194595
1.870;-4.314901;1.184325
1.880;-4.304596;1.177631
1.890;-4.299285;1.173941
1.900;-4.299164;1.172329
1.910;-4.303552;1.171714
1.920;-4.311175;1.171109
1.930;-4.320499;1.169836
1.940;-4.330029;1.167654
1.950;-4.338497;1.164716
1.960;-4.344972;1.161390
1.970;-4.348937;1.158000
1.980;-4.350382;1.154642
1.990;-4.349851;1.151180
2.000;-4.348365;1.147438
2.010;-4.347180;1.143447
2.020;-4.347431;1.139587
2.030;-4.349831;1.136530
2.040;-4.354573;1.135022
2.050;-4.361453;1.135610
2.060;-4.370131;1.138445
2.070;-4.380371;1.143232
2.080;-4.392166;1.149344
2.090;-4.405711;1.156036
2.100;-4.421257;1.162659
2.110;-4.438902;1.168780
2.120;-4.458408;1.174143
2.130;-4.479081;1.178556
2.140;-4.499776;1.181797
2.150;-4.519048;1.183657
2.160;-4.535406;1.184114
2.170;-4.547618;1.183509
2.180;-4.554979;1.182613
2.190;-4.557496;1.182496
2.200;-4.555907;1.184256
2.210;-4.551524;1.188692
2.220;-4.545930;1.196045
2.230;-4.540643;1.205895
2.240;-4.536882;1.217257
2.250;-4.535470;1.228811
2.260;-4.536862;1.239165
2.270;-4.541229;1.247077
2.280;-4.548529;1.251665
2.290;-4.558561;1.252622
2.300;-4.570996;1.250419
2.310;-4.585356;1.246412
2.320;-4.600952;1.242691
2.330;-4.616831;1.241632
2.340;-4.631820;1.245270
2.350;-4.644718;1.254756
2.360;-4.654588;1.270112
2.370;-4.661059;1.290385
2.380;-4.664497;1.314056
2.390;-4.665960;1.339512
2.400;-4.666970;1.365393
2.410;-4.669170;1.390746
2.420;-4.673972;1.415014
2.430;-4.682280;1.437926
2.440;-4.694339;1.459363
2.450;-4.709773;1.479255
2.460;-4.727782;1.497570
2.470;-4.747457;1.514337
2.480;-4.768082;1.529676
2.490;-4.789303;1.543778
2.500;-4.811099;1.556828
2.510;-4.833565;1.568889
2.520;-4.856594;1.579796
2.530;-4.879595;1.589107
2.540;-4.901362;1.596143
2.550;-4.920204;1.600119
2.560;-4.934315;1.600328
2.570;-4.942287;1.596290
2.580;-4.943560;1.587833
2.590;-4.938644;1.575074
2.600;-4.928993;1.558314
2.610;-4.916584;1.537939
2.620;-4.903346;1.514395
2.630;-4.890634;1.488246
2.640;-4.878935;1.460241
2.650;-4.867878;1.431310
2.660;-4.856557;1.402466
2.670;-4.844013;1.374683
2.680;-4.829734;1.348773
2.690;-4.813966;1.325279
2.700;-4.797744;1.304386
2.710;-4.782630;1.285888
2.720;-4.770254;1.269274
2.730;-4.761856;1.253916
2.740;-4.758000;1.239273
2.750;-4.758547;1.225028
2.760;-4.762844;1.211089
2.770;-4.769982;1.197458
2.780;-4.779021;1.184053
2.790;-4.789089;1.170604
2.800;-4.799372;1.156694
2.810;-4.809043;1.141930
2.820;-4.817278;1.126139
2.830;-4.823406;1.109465
2.840;-4.827148;1.092316
2.850;-4.828820;1.075226
2.860;-4.829355;1.058699
2.870;-4.830092;1.043130
2.880;-4.832370;1.028787
2.890;-4.837064;1.015799
2.900;-4.844221;1.004143
2.910;-4.852913;0.993619
2.920;-4.861377;0.983868
2.930;-4.867403;0.974447
2.940;-4.868878;0.964953
2.950;-4.864312;0.955128
2.960;-4.853211;0.944922
2.970;-4.836153;0.934499
2.980;-4.814602;0.924189
2.990;-4.790512;0.914407
3.000;-4.765879;0.905559
3.010;-4.742361;0.897988
3.020;-4.721029;0.891948
3.030;-4.702289;0.887593
3.040;-4.685961;0.884961
3.050;-4.671519;0.883946
3.060;-4.658397;0.884273
3.070;-4.646267;0.885518
3.080;-4.635182;0.887180
3.090;-4.625538;0.888787
3.100;-4.617899;0.890005
3.110;-4.612727;0.890729
3.120;-4.610122;0.891116
3.130;-4.609668;0.891569
3.140;-4.610430;0.892679
3.150;-4.611129;0.895151
3.160;-4.610439;0.899729
3.170;-4.607327;0.907100
3.180;-4.601358;0.917797
3.190;-4.592832;0.932098
3.200;-4.582746;0.949951
3.210;-4.572567;0.970911
3.220;-4.563889;0.994129
3.230;-4.558046;1.018403
3.240;-4.555777;1.042337
3.250;-4.557030;1.064575
3.260;-4.560967;1.084045
3.270;-4.566177;1.100153
3.280;-4.571060;1.112895
3.290;-4.574284;1.122865
3.300;-4.575166;1.131114
3.310;-4.573846;1.138879
3.320;-4.571170;1.147229
3.330;-4.568336;1.156762
3.340;-4.566458;1.167465
3.350;-4.566197;1.178790
3.360;-4.567561;1.189917
3.370;-4.569933;1.200098
3.380;-4.572311;1.208952
3.390;-4.573669;1.216586
3.400;-4.573330;1.223521
3.410;-4.571230;1.230466
3.420;-4.567969;1.238038
3.430;-4.564677;1.246520
3.440;-4.562694;1.255738
3.450;-4.563179;1.265088
3.460;-4.566769;1.273715
3.470;-4.573400;1.280765
3.480;-4.582337;1.285604
3.490;-4.592377;1.287943
3.500;-4.602154;1.287845
3.510;-4.610451;1.285676
3.520;-4.616482;1.282041
3.530;-4.620088;1.277705
3.540;-4.621806;1.273495
3.550;-4.622766;1.270146
3.560;-4.624399;1.268131
3.570;-4.628043;1.267509
3.580;-4.634552;1.267858
3.590;-4.644049;1.268366
3.600;-4.655872;1.268055
3.610;-4.668712;1.266061
3.620;-4.680911;1.261862
3.630;-4.690848;1.255364
3.640;-4.697363;1.246869
3.650;-4.700084;1.236987
3.660;-4.699555;1.226549
3.670;-4.697086;1.216528
3.680;-4.694370;1.207952
3.690;-4.693010;1.201767
3.700;-4.694101;1.198674
3.710;-4.697986;1.198965
3.720;-4.704192;1.202419
3.730;-4.711541;1.208327
3.740;-4.718392;1.215669
3.750;-4.722980;1.223399
3.760;-4.723755;1.230712
3.770;-4.719691;1.237202
3.780;-4.710500;1.242850
3.790;-4.696712;1.247890
3.800;-4.679571;1.252611
3.810;-4.660734;1.257205
3.820;-4.641811;1.261666
3.830;-4.623902;1.265765
3.840;-4.607304;1.269088
3.850;-4.591504;1.271107
3.860;-4.575465;1.271266
3.870;-4.558087;1.269085
3.880;-4.538637;1.264284
3.890;-4.517003;1.256924
3.900;-4.493694;1.247490
3.910;-4.469652;1.236871
3.920;-4.445997;1.226183
3.930;-4.423842;1.216474
3.940;-4.404212;1.208415
3.950;-4.388069;1.202087
3.960;-4.376300;1.196966
3.970;-4.369588;1.192104
3.980;-4.368144;1.186427
3.990;-4.371433;1.179021
4.000;-4.378067;1.169304
4.010;-4.385990;1.157089
4.020;-4.392951;1.142572
4.030;-4.397100;1.126270
4.040;-4.397505;1.108945
4.050;-4.394383;1.091492
4.060;-4.388999;1.074838
4.070;-4.383297;1.059839
4.080;-4.379397;1.047193
4.090;-4.379125;1.037373
4.100;-4.383671;1.030565
4.110;-4.393425;1.026639
4.120;-4.408004;1.025158
4.130;-4.426433;1.025437
4.140;-4.447409;1.026647
4.150;-4.469579;1.027953
4.160;-4.491714;1.028654
4.170;-4.512779;1.028304
4.180;-4.531917;1.026761
4.190;-4.548402;1.024147
4.200;-4.561627;1.020737
4.210;-4.571114;1.016839
4.220;-4.576571;1.012773
4.230;-4.577984;1.008945
4.240;-4.575705;1.005943
4.250;-4.570517;1.004535
4.260;-4.563591;1.005501
4.270;-4.556338;1.009376
4.280;-4.550151;1.016252
4.290;-4.546144;1.025775
4.300;-4.544987;1.037361
4.310;-4.546901;1.050515
4.320;-4.551811;1.065049
4.330;-4.559533;1.081084
4.340;-4.569905;1.098838
4.350;-4.582805;1.118343
4.360;-4.598073;1.139273
4.370;-4.615404;1.160996
4.380;-4.634268;1.182776
4.390;-4.653895;1.203986
4.400;-4.673371;1.224196
4.410;-4.691802;1.243145
4.420;-4.708527;1.260668
4.430;-4.723280;1.276651
4.440;-4.736249;1.291045
4.450;-4.748011;1.303920
4.460;-4.759368;1.315516
4.470;-4.771117;1.326182
4.480;-4.783826;1.336189
4.490;-4.797693;1.345473
4.500;-4.812496;1.353448
4.510;-4.827659;1.359041
4.520;-4.842395;1.360989
4.530;-4.855917;1.358290
4.540;-4.867691;1.350595
4.550;-4.877638;1.338339
4.560;-4.886181;1.322558
4.570;-4.894072;1.304502
4.580;-4.902014;1.285257
4.590;-4.910203;1.265500
4.600;-4.917986;1.245487
4.610;-4.923851;1.225225
4.620;-4.925796;1.204753
4.630;-4.921988;1.184405
4.640;-4.911462;1.164898
4.650;-4.894578;1.147216
4.660;-4.873042;1.132279
4.670;-4.849461;1.120546
4.680;-4.826588;1.111702
4.690;-4.806529;1.104624
4.700;-4.790202;1.097674
4.710;-4.777217;1.089234
4.720;-4.766192;1.078261
4.730;-4.755327;1.064642
4.740;-4.743038;1.049206
4.750;-4.728460;1.033379
4.760;-4.711694;1.018604
4.770;-4.693787;1.005792
4.780;-4.676453;0.995044
4.790;-4.661638;0.985760
4.800;-4.651027;0.977065
4.810;-4.645613;0.968316
4.820;-4.645433;0.959470
4.830;-4.649564;0.951149
4.840;-4.656395;0.944400
4.850;-4.664109;0.940288
4.860;-4.671167;0.939495
4.870;-4.676614;0.942117
4.880;-4.680076;0.947681
4.890;-4.681492;0.955350
4.900;-4.680748;0.964181
4.910;-4.677388;0.973318
4.920;-4.670534;0.982057
4.930;-4.659042;0.989796
4.940;-4.641887;0.995949
4.950;-4.618614;0.999928
4.960;-4.589719;1.001208
4.970;-4.556770;0.999464
4.980;-4.522236;0.994721
4.990;-4.489053;0.987436
5.000;-4.460070;0.978471
5.010;-4.437539;0.968953
5.020;-4.422800;0.960042
5.030;-4.416228;0.952689
5.040;-4.417386;0.947440
5.050;-4.425287;0.944348
5.060;-4.438616;0.943029
5.070;-4.455906;0.942845
5.080;-4.475697;0.943160
5.090;-4.496679;0.943570
5.100;-4.517832;0.944025
5.110;-4.538473;0.944800
5.120;-4.558220;0.946351
5.130;-4.576900;0.949129
5.140;-4.594489;0.953406
5.150;-4.611121;0.959171
5.160;-4.627127;0.966116
5.170;-4.643017;0.973713
5.180;-4.659368;0.981352
5.190;-4.676632;0.988484
5.200;-4.694947;0.994728
5.210;-4.714044;0.999956
5.220;-4.733304;1.004334
5.230;-4.751954;1.008275
5.240;-4.769320;1.012291
5.250;-4.785025;1.016747
5.260;-4.799036;1.021642
5.270;-4.811550;1.026524
5.280;-4.822740;1.030613
5.290;-4.832451;1.033070
5.300;-4.839961;1.033317
5.310;-4.843958;1.031288
5.320;-4.842804;1.027515
5.330;-4.835055;1.023019
5.340;-4.820031;1.019072
5.350;-4.798230;1.016875
5.360;-4.771383;1.017251
5.370;-4.742154;1.020417
5.380;-4.713604;1.025932
5.390;-4.688582;1.032857
5.400;-4.669226;1.040091
5.410;-4.656647;1.046708
5.420;-4.650852;1.052141
5.430;-4.650885;1.056183
5.440;-4.655148;1.058871
5.450;-4.661782;1.060372
5.460;-4.669029;1.060923
5.470;-4.675455;1.060829
5.480;-4.680032;1.060506
5.490;-4.682111;1.060518
5.500;-4.681366;1.061552
5.510;-4.677778;1.064321
5.520;-4.671640;1.069410
5.530;-4.663597;1.077126
5.540;-4.654641;1.087379
5.550;-4.646037;1.099626
5.560;-4.639130;1.112910
5.570;-4.635070;1.126008
5.580;-4.634494;1.137672
5.590;-4.637307;1.146889
5.600;-4.642631;1.153092
5.610;-4.648983;1.156268
5.620;-4.654620;1.156955
5.630;-4.657982;1.156113
5.640;-4.658088;1.154921
5.650;-4.654793;1.154551
5.660;-4.648826;1.155945
5.670;-4.641614;1.159646
5.680;-4.634922;1.165682
5.690;-4.630417;1.173538
5.700;-4.629236;1.182258
5.710;-4.631666;1.190670
5.720;-4.636974;1.197716
5.730;-4.643486;1.202749
5.740;-4.648943;1.205707
5.750;-4.651103;1.207082
5.760;-4.648404;1.207732
5.770;-4.640449;1.208612
5.780;-4.628144;1.210521
5.790;-4.613451;1.213934
5.800;-4.598869;1.218923
5.810;-4.586840;1.225161
5.820;-4.579214;1.232039
5.830;-4.576904;1.238852
5.840;-4.579761;1.245018
5.850;-4.586694;1.250250
5.860;-4.596003;1.254613
5.870;-4.605847;1.258469
5.880;-4.614732;1.262345
5.890;-4.621876;1.266780
5.900;-4.627362;1.272204
5.910;-4.632044;1.278861
5.920;-4.637240;1.286774
5.930;-4.644286;1.295748
5.940;-4.654113;1.305427
5.950;-4.666969;1.315393
5.960;-4.682421;1.325265
5.970;-4.699605;1.334738
5.980;-4.717604;1.343516
5.990;-4.735736;1.351172
6.000;-4.753610;1.357056
6.010;-4.770942;1.360332
6.020;-4.787247;1.360163
6.030;-4.801629;1.355938
6.040;-4.812774;1.347458
6.050;-4.819240;1.334985
6.060;-4.819909;1.319141
6.070;-4.814452;1.300688
6.080;-4.803553;1.280292
6.090;-4.788800;1.258380
6.100;-4.772274;1.235179
6.110;-4.756016;1.210889
6.120;-4.741599;1.185894
6.130;-4.729942;1.160872
6.140;-4.721352;1.136743
6.150;-4.715726;1.114517
6.160;-4.712790;1.095080
6.170;-4.712293;1.079007
6.180;-4.714094;1.066436
6.190;-4.718132;1.057056
6.200;-4.724321;1.050220
6.210;-4.732407;1.045125
6.220;-4.741854;1.040996
6.230;-4.751801;1.037196
6.240;-4.761120;1.033273
6.250;-4.768590;1.028965
6.260;-4.773165;1.024194
6.270;-4.774254;1.019035
6.280;-4.771924;1.013647
6.290;-4.766931;1.008167
6.300;-4.760552;1.002631
6.310;-4.754276;0.996946
6.320;-4.749407;0.990942
6.330;-4.746702;0.984490
6.340;-4.746150;0.977651
6.350;-4.746997;0.970796
6.360;-4.748035;0.964644
6.370;-4.748043;0.960157
6.380;-4.746230;0.958325
6.390;-4.742494;0.959917
6.400;-4.737433;0.965298
6.410;-4.732102;0.974382
6.420;-4.727654;0.986699
6.430;-4.724990;1.001532
6.440;-4.724540;1.018074
6.450;-4.726214;1.035545
6.460;-4.729462;1.053237
6.470;-4.733389;1.070467
6.480;-4.736868;1.086494
6.490;-4.738660;1.100530
6.500;-4.737541;1.111874
6.510;-4.732462;1.120161
6.520;-4.722734;1.125564
6.530;-4.708190;1.128863
6.540;-4.689295;1.131307
6.550;-4.667111;1.134305
6.560;-4.643128;1.139058
6.570;-4.619008;1.146219
6.580;-4.596336;1.155699
6.590;-4.576430;1.166670
6.600;-4.560208;1.177792
6.610;-4.548094;1.187591
6.620;-4.539974;1.194887
6.630;-4.535240;1.199135
6.640;-4.532944;1.200586
6.650;-4.532014;1.200192
6.660;-4.531471;1.199288
6.670;-4.530545;1.199147
6.680;-4.528682;1.200572
6.690;-4.525460;1.203698
6.700;-4.520503;1.208019
6.710;-4.513444;1.212608
6.720;-4.503940;1.216390
6.730;-4.491751;1.218435
6.740;-4.476835;1.218183
6.750;-4.459429;1.215572
6.760;-4.440073;1.210986
6.770;-4.419577;1.205037
6.780;-4.398952;1.198291
6.790;-4.379321;1.191078
6.800;-4.361842;1.183451
6.810;-4.347619;1.175286
6.820;-4.337586;1.166429
6.830;-4.332343;1.156809
6.840;-4.331991;1.146490
6.850;-4.336040;1.135650
6.860;-4.343459;1.124516
6.870;-4.352880;1.113312
6.880;-4.362915;1.102238
6.890;-4.372510;1.091495
6.900;-4.381211;1.081312
6.910;-4.389243;1.071910
6.920;-4.397327;1.063403
6.930;-4.406312;1.055696
6.940;-4.416738;1.048466
6.950;-4.428497;1.041257
6.960;-4.440711;1.033652
6.970;-4.451882;1.025460
6.980;-4.460300;1.016822
6.990;-4.464578;1.008195
7.000;-4.464138;1.000215
7.010;-4.459448;0.993500
7.020;-4.451927;0.988467
7.030;-4.443560;0.985240
7.040;-4.436395;0.983651
7.050;-4.432075;0.983308
7.060;-4.431528;0.983675
7.070;-4.434868;0.984182
7.080;-4.441496;0.984363
7.090;-4.450357;0.983990
7.100;-4.460286;0.983139
7.110;-4.470344;0.982138
7.120;-4.480051;0.981432
7.130;-4.489405;0.981437
7.140;-4.498693;0.982449
7.150;-4.508206;0.984635
7.160;-4.517972;0.988060
7.170;-4.527630;0.992701
7.180;-4.536462;0.998429
7.190;-4.543572;1.004948
7.200;-4.548174;1.011751
7.210;-4.549915;1.018133
7.220;-4.549112;1.023302
7.230;-4.546784;1.026591
7.240;-4.544432;1.027683
7.250;-4.543653;1.026766
7.260;-4.545729;1.024531
7.270;-4.551332;1.021998
7.280;-4.560422;1.020238
7.290;-4.572342;1.020067
7.300;-4.586056;1.021813
7.310;-4.600465;1.025238
7.320;-4.614677;1.029650
7.330;-4.628193;1.034176
7.340;-4.640934;1.038101
7.350;-4.653140;1.041127
7.360;-4.665153;1.043460
7.370;-4.677162;1.045660
7.380;-4.689002;1.048338
7.390;-4.700086;1.051800
7.400;-4.709508;1.055788
7.410;-4.716273;1.059431
7.420;-4.719553;1.061429
7.430;-4.718866;1.060442
7.440;-4.714144;1.055570
7.450;-4.705717;1.046754
7.460;-4.694247;1.034947
7.470;-4.680632;1.021948
7.480;-4.665887;1.009947
7.490;-4.651015;1.000933
7.500;-4.636863;0.996198
7.510;-4.624017;0.996111
7.520;-4.612755;1.000192
7.530;-4.603074;1.007412
7.540;-4.594769;1.016559
7.550;-4.587551;1.026539
7.560;-4.581143;1.036531
7.570;-4.575351;1.045986
7.580;-4.570080;1.054556
7.590;-4.565279;1.062052
7.600;-4.560854;1.068478
7.610;-4.556595;1.074109
7.620;-4.552166;1.079499
7.630;-4.547183;1.085375
7.640;-4.541363;1.092392
7.650;-4.534677;1.100816
7.660;-4.527469;1.110264
7.670;-4.520457;1.119610
7.680;-4.514589;1.127176
7.690;-4.510765;1.131194
7.700;-4.509474;1.130428
7.710;-4.510513;1.124678
7.720;-4.512916;1.114918
7.730;-4.515195;1.102980
7.740;-4.515802;1.090929
7.750;-4.513646;1.080436
7.760;-4.508472;1.072385
7.770;-4.500962;1.066810
7.780;-4.492544;1.063106
7.790;-4.484973;1.060377
7.800;-4.479851;1.057781
7.810;-4.478243;1.054783
7.820;-4.480498;1.051265
7.830;-4.486313;1.047517
7.840;-4.494963;1.044115
7.850;-4.505595;1.041722
7.860;-4.517484;1.040832
7.870;-4.530182;1.041533
7.880;-4.543547;1.043386
7.890;-4.557628;1.045485
7.900;-4.572484;1.046699
7.910;-4.587972;1.045958
7.920;-4.603617;1.042485
7.930;-4.618603;1.035913
7.940;-4.631882;1.026302
7.950;-4.642361;1.014121
7.960;-4.649085;1.000178
7.970;-4.651390;0.985490
7.980;-4.648995;0.971094
