Time[s];COPx[cm];COPy[cm]
0.010;-0.722254;1.941676
0.020;-0.838917;1.980037
0.030;-0.954624;2.017608
0.040;-1.068273;2.053794
0.050;-1.178117;2.088301
0.060;-1.281797;2.121099
0.070;-1.376656;2.152257
0.080;-1.460263;2.181729
0.090;-1.530933;2.209236
0.100;-1.588056;2.234257
0.110;-1.632124;2.256161
0.120;-1.664474;2.274390
0.130;-1.686898;2.288600
0.140;-1.701234;2.298677
0.150;-1.709023;2.304619
0.160;-1.711286;2.306404
0.170;-1.708437;2.303964
0.180;-1.700374;2.297310
0.190;-1.686692;2.286727
0.200;-1.666960;2.272887
0.210;-1.640968;2.256769
0.220;-1.608896;2.239413
0.230;-1.571392;2.221657
0.240;-1.529579;2.203989
0.250;-1.485015;2.186572
0.260;-1.439612;2.169392
0.270;-1.395508;2.152439
0.280;-1.354882;2.135815
0.290;-1.319744;2.119735
0.300;-1.291730;2.104425
0.310;-1.271942;2.090008
0.320;-1.260853;2.076452
0.330;-1.258282;2.063617
0.340;-1.263430;2.051360
0.350;-1.274972;2.039671
0.360;-1.291258;2.028784
0.370;-1.310638;2.019225
0.380;-1.331880;2.011766
0.390;-1.354483;2.007251
0.400;-1.378707;2.006341
0.410;-1.405216;2.009245
0.420;-1.434451;2.015560
0.430;-1.466024;2.024320
0.440;-1.498464;2.034300
0.450;-1.529516;2.044482
0.460;-1.556883;2.054501
0.470;-1.579100;2.064828
0.480;-1.596098;2.076594
0.490;-1.609162;2.091115
0.500;-1.620303;2.109354
0.510;-1.631329;2.131533
0.520;-1.643048;2.157031
0.530;-1.654964;2.184530
0.540;-1.665560;2.212318
0.550;-1.672996;2.238646
0.560;-1.675873;2.262048
0.570;-1.673687;2.281566
0.580;-1.666794;2.296837
0.590;-1.655956;2.308043
0.600;-1.641736;2.315763
0.610;-1.624061;2.320779
0.620;-1.602144;2.323890
0.630;-1.574740;2.325748
0.640;-1.540585;2.326743
0.650;-1.498805;2.326938
0.660;-1.449122;2.326086
0.670;-1.391818;2.323706
0.680;-1.327530;2.319175
0.690;-1.257024;2.311806
0.700;-1.181020;2.300932
0.710;-1.100108;2.285987
0.720;-1.014718;2.266578
0.730;-0.925193;2.242532
0.740;-0.831932;2.213894
0.750;-0.735565;2.180875
0.760;-0.637037;2.143754
0.770;-0.537503;2.102755
0.780;-0.438067;2.058017
0.790;-0.339469;2.009695
0.800;-0.241908;1.958205
0.810;-0.145102;1.904474
0.820;-0.048593;1.850041
0.830;0.047868;1.796883
0.840;0.144027;1.747022
0.850;0.239043;1.702089
0.860;0.331644;1.663023
0.870;0.420418;1.630041
0.880;0.504151;1.602821
0.890;0.582121;1.580804
0.900;0.654260;1.563473
0.910;0.721151;1.550551
0.920;0.783833;1.542052
0.930;0.843495;1.538207
0.940;0.901154;1.539298
0.950;0.957459;1.545468
0.960;1.012663;1.556626
0.970;1.066751;1.572455
0.980;1.119648;1.592516
0.990;1.171411;1.616328
1.000;1.222324;1.643338
1.010;1.272876;1.672806
1.020;1.323651;1.703720
1.030;1.375166;1.734857
1.040;1.427704;1.765023
1.050;1.481193;1.793312
1.060;1.535170;1.819263
1.070;1.588888;1.842829
1.080;1.641545;1.864250
1.090;1.692586;1.883941
1.100;1.741986;1.902480
1.110;1.790398;1.920689
1.120;1.839135;1.939705
1.130;1.889982;1.960953
1.140;1.944904;1.985953
1.150;2.005732;2.015986
1.160;2.073868;2.051785
1.170;2.150086;2.093383
1.180;2.234465;2.140250
1.190;2.326448;2.191657
1.200;2.424998;2.247090
1.210;2.528773;2.306487
1.220;2.636284;2.370178
1.230;2.745998;2.438526
1.240;2.856418;2.511446
1.250;2.966149;2.588007
1.260;3.073979;2.666299
1.270;3.178947;2.743660
1.280;3.280365;2.817214
1.290;3.377736;2.884526
1.300;3.470556;2.944141
1.310;3.558056;2.995789
1.320;3.638980;3.040207
1.330;3.711518;3.078639
1.340;3.773425;3.112232
1.350;3.822288;3.141604
1.360;3.855822;3.166749
1.370;3.872118;3.187267
1.380;3.869829;3.202699
1.390;3.848287;3.212734
1.400;3.807553;3.217204
1.410;3.748343;3.215922
1.420;3.671761;3.208531
1.430;3.578840;3.194425
1.440;3.469977;3.172783
1.450;3.344450;3.142689
1.460;3.200200;3.103298
1.470;3.033957;3.054021
1.480;2.841747;2.994659
1.490;2.619757;2.925417
1.500;2.365529;2.846840
1.510;2.079376;2.759725
1.520;1.765697;2.665115
1.530;1.433664;2.564366
1.540;1.096645;2.459243
1.550;0.770121;2.351937
1.560;0.468637;2.244914
1.570;0.203026;2.140636
1.580;-0.020913;2.041220
1.590;-0.201971;1.948227
1.600;-0.341929;1.862613
1.610;-0.443790;1.784827
1.620;-0.510593;1.714957
1.630;-0.545033;1.652842
1.640;-0.549703;1.598126
1.650;-0.527542;1.550274
1.660;-0.482097;1.508562
1.670;-0.417447;1.472064
1.680;-0.337866;1.439671
1.690;-0.247507;1.410170
1.700;-0.150260;1.382410
1.710;-0.049844;1.355551
1.720;0.050021;1.329309
1.730;0.145468;1.304093
1.740;0.232517;1.280935
1.750;0.307277;1.261211
1.760;0.366263;1.246249
1.770;0.406759;1.236977
1.780;0.427132;1.233740
1.790;0.427040;1.236312
1.800;0.407477;1.244062
1.810;0.370625;1.256168
1.820;0.319574;1.271762
1.830;0.258006;1.289929
1.840;0.189960;1.309654
1.850;0.119669;1.329813
1.860;0.051434;1.349328
1.870;-0.010515;1.367440
1.880;-0.062180;1.383977
1.890;-0.099950;1.399472
1.900;-0.120744;1.415069
1.910;-0.122123;1.432254
1.920;-0.102373;1.452505
1.930;-0.060595;1.476945
1.940;0.003196;1.506050
1.950;0.087924;1.539435
1.960;0.191320;1.575775
1.970;0.309888;1.612946
1.980;0.439065;1.648419
1.990;0.573615;1.679818
2.000;0.708176;1.705460
2.010;0.837827;1.724663
2.020;0.958526;1.737713
2.030;1.067318;1.745545
2.040;1.162309;1.749248
2.050;1.242459;1.749576
2.060;1.307330;1.746597
2.070;1.356900;1.739576
2.080;1.391512;1.727117
2.090;1.411927;1.707539
2.100;1.419425;1.679409
2.110;1.415865;1.642047
2.120;1.403673;1.595864
2.130;1.385757;1.542381
2.140;1.365338;1.483932
2.150;1.345711;1.423146
2.160;1.329969;1.362368
2.170;1.320763;1.303219
2.180;1.320174;1.246411
2.190;1.329703;1.191856
2.200;1.350350;1.139005
2.210;1.382681;1.087250
2.220;1.426827;1.036258
2.230;1.482413;0.986145
2.240;1.548500;0.937464
2.250;1.623629;0.891033
2.260;1.706023;0.847660
2.270;1.793904;0.807829
2.280;1.885777;0.771512
2.290;1.980536;0.738166
2.300;2.077349;0.706949
2.310;2.175411;0.677017
2.320;2.273723;0.647765
2.330;2.371031;0.618914
2.340;2.465950;0.590442
2.350;2.557205;0.562427
2.360;2.643839;0.534843
2.370;2.725290;0.507408
2.380;2.801318;0.479507
2.390;2.871852;0.450266
2.400;2.936862;0.418740
2.410;2.996314;0.384151
2.420;3.050208;0.346088
2.430;3.098657;0.304612
2.440;3.141964;0.260272
2.450;3.180643;0.214069
2.460;3.215361;0.167357
2.470;3.246827;0.121663
2.480;3.275643;0.078431
2.490;3.302188;0.038766
2.500;3.326570;0.003301
2.510;3.348677;-0.027748
2.520;3.368312;-0.054352
2.530;3.385332;-0.076371
2.540;3.399748;-0.093376
2.550;3.411717;-0.104652
2.560;3.421420;-0.109437
2.570;3.428875;-0.107249
2.580;3.433775;-0.098199
2.590;3.435449;-0.083142
2.600;3.432968;-0.063623
2.610;3.425352;-0.041619
2.620;3.411769;-0.019174
2.630;3.391660;0.001976
2.640;3.364750;0.020715
2.650;3.330979;0.036732
2.660;3.290387;0.050569
2.670;3.242991;0.063493
2.680;3.188715;0.077194
2.690;3.127398;0.093295
2.700;3.058907;0.112810
2.710;2.983371;0.135718
2.720;2.901449;0.160831
2.730;2.814525;0.186024
2.740;2.724704;0.208738
2.750;2.634561;0.226591
2.760;2.546697;0.237915
2.770;2.463284;0.242045
2.780;2.385773;0.239319
2.790;2.314934;0.230820
2.800;2.251180;0.218027
2.810;2.195020;0.202495
2.820;2.147367;0.185639
2.830;2.109548;0.168626
2.840;2.083002;0.152300
2.850;2.068827;0.137162
2.860;2.067393;0.123415
2.870;2.078136;0.111086
2.880;2.099587;0.100199
2.890;2.129564;0.090897
2.900;2.165482;0.083477
2.910;2.204701;0.078322
2.920;2.244835;0.075783
2.930;2.283938;0.076060
2.940;2.320559;0.079134
2.950;2.353668;0.084773
2.960;2.382544;0.092580
2.970;2.406652;0.102068
2.980;2.425571;0.112715
2.990;2.438970;0.124028
3.000;2.446633;0.135575
3.010;2.448504;0.146987
3.020;2.444769;0.157947
3.030;2.435948;0.168177
3.040;2.423011;0.177453
3.050;2.407423;0.185630
3.060;2.391018;0.192660
3.070;2.375708;0.198581
3.080;2.363096;0.203468
3.090;2.354208;0.207378
3.100;2.349457;0.210348
3.110;2.348845;0.212443
3.120;2.352286;0.213849
3.130;2.359869;0.214921
3.140;2.371945;0.216157
3.150;2.389032;0.218094
3.160;2.411600;0.221204
3.170;2.439865;0.225813
3.180;2.473671;0.232079
3.190;2.512509;0.240044
3.200;2.555652;0.249745
3.210;2.602357;0.261350
3.220;2.652077;0.275209
3.230;2.704579;0.291809
3.240;2.759883;0.311592
3.250;2.818040;0.334744
3.260;2.878827;0.361025
3.270;2.941541;0.389737
3.280;3.004944;0.419848
3.290;3.067393;0.450237
3.300;3.127032;0.479962
3.310;3.181984;0.508473
3.320;3.230473;0.535683
3.330;3.270907;0.561866
3.340;3.301967;0.587410
3.350;3.322701;0.612511
3.360;3.332623;0.636939
3.370;3.331757;0.660002
3.380;3.320595;0.680715
3.390;3.299993;0.698122
3.400;3.271024;0.711625
3.410;3.234876;0.721192
3.420;3.192855;0.727391
3.430;3.146477;0.731240
3.440;3.097551;0.733960
3.450;3.048166;0.736730
3.460;3.000545;0.740540
3.470;2.956779;0.746151
3.480;2.918546;0.754114
3.490;2.886873;0.764796
3.500;2.862046;0.778372
3.510;2.843692;0.794758
3.520;2.830992;0.813530
3.530;2.822948;0.833917
3.540;2.818591;0.854919
3.550;2.817094;0.875538
3.560;2.817794;0.895019
3.570;2.820164;0.913002
3.580;2.823792;0.929499
3.590;2.828379;0.944713
3.600;2.833726;0.958798
3.610;2.839703;0.971670
3.620;2.846185;0.982971
3.630;2.852967;0.992195
3.640;2.859682;0.998920
3.650;2.865727;1.003001
3.660;2.870225;1.004644
3.670;2.872039;1.004335
3.680;2.869885;1.002691
3.690;2.862541;1.000310
3.700;2.849075;0.997671
3.710;2.829045;0.995120
3.720;2.802576;0.992885
3.730;2.770306;0.991107
3.740;2.733198;0.989844
3.750;2.692283;0.989031
3.760;2.648381;0.988438
3.770;2.601891;0.987627
3.780;2.552705;0.985965
3.790;2.500286;0.982730
3.800;2.443896;0.977283
3.810;2.382928;0.969261
3.820;2.317273;0.958740
3.830;2.247601;0.946310
3.840;2.175459;0.933038
3.850;2.103101;0.920300
3.860;2.033093;0.909494
3.870;1.967818;0.901737
3.880;1.909054;0.897675
3.890;1.857761;0.897495
3.900;1.814116;0.901112
3.910;1.777750;0.908399
3.920;1.748055;0.919315
3.930;1.724432;0.933862
3.940;1.706390;0.951910
3.950;1.693472;0.973016
3.960;1.685097;0.996364
3.970;1.680401;1.020863
3.980;1.678203;1.045368
3.990;1.677126;1.068936
4.000;1.675840;1.091000
4.010;1.673326;1.111414
4.020;1.669034;1.130366
4.030;1.662855;1.148229
4.040;1.654939;1.165411
4.050;1.645466;1.182197
4.060;1.634490;1.198623
4.070;1.621948;1.214418
4.080;1.607755;1.229058
4.090;1.591925;1.241919
4.100;1.574614;1.252442
4.110;1.556073;1.260236
4.120;1.536564;1.265103
4.130;1.516281;1.267016
4.140;1.495331;1.266098
4.150;1.473754;1.262609
4.160;1.451569;1.256956
4.170;1.428811;1.249673
4.180;1.405570;1.241395
4.190;1.382026;1.232797
4.200;1.358489;1.224504
4.210;1.335430;1.216995
4.220;1.313471;1.210522
4.230;1.293302;1.205095
4.240;1.275549;1.200549
4.250;1.260617;1.196642
4.260;1.248586;1.193167
4.270;1.239185;1.190020
4.280;1.231857;1.187235
4.290;1.225909;1.184956
4.300;1.220672;1.183373
4.310;1.215649;1.182629
4.320;1.210603;1.182745
4.330;1.205556;1.183574
4.340;1.200704;1.184820
4.350;1.196275;1.186103
4.360;1.192406;1.187066
4.370;1.189082;1.187471
4.380;1.186166;1.187271
4.390;1.183483;1.186611
4.400;1.180905;1.185764
4.410;1.178387;1.185030
4.420;1.175938;1.184637
4.430;1.173568;1.184706
4.440;1.171253;1.185300
4.450;1.168939;1.186505
4.460;1.166559;1.188504
4.470;1.164069;1.191549
4.480;1.161447;1.195845
4.490;1.158685;1.201417
4.500;1.155775;1.208048
4.510;1.152744;1.215357
4.520;1.149731;1.222939
4.530;1.147091;1.230520
4.540;1.145434;1.238050
4.550;1.145545;1.245746
4.560;1.148196;1.254063
4.570;1.153918;1.263622
4.580;1.162894;1.275087
4.590;1.174987;1.289037
4.600;1.189904;1.305824
4.610;1.207372;1.325468
4.620;1.227258;1.347635
4.630;1.249590;1.371702
4.640;1.274488;1.396899
4.650;1.302020;1.422407
4.660;1.332050;1.447395
4.670;1.364118;1.471012
4.680;1.397408;1.492422
4.690;1.430835;1.510915
4.700;1.463234;1.526046
4.710;1.493602;1.537707
4.720;1.521286;1.546079
4.730;1.546067;1.551454
4.740;1.568087;1.554037
4.750;1.587700;1.553796
4.760;1.605299;1.550454
4.770;1.621213;1.543578
4.780;1.635675;1.532714
4.790;1.648868;1.517534
4.800;1.660955;1.497949
4.810;1.672085;1.474221
4.820;1.682383;1.447020
4.830;1.691956;1.417408
4.840;1.700921;1.386684
4.850;1.709414;1.356151
4.860;1.717570;1.326862
4.870;1.725482;1.299470
4.880;1.733174;1.274221
4.890;1.740605;1.251054
4.900;1.747711;1.229737
4.910;1.754455;1.209962
4.920;1.760857;1.191393
4.930;1.766980;1.173690
4.940;1.772893;1.156555
4.950;1.778622;1.139783
4.960;1.784110;1.123308
4.970;1.789181;1.107210
4.980;1.793526;1.091673
4.990;1.796723;1.076919
5.000;1.798289;1.063123
5.010;1.797798;1.050345
5.020;1.795038;1.038479
5.030;1.790146;1.027268
5.040;1.783654;1.016363
5.050;1.776382;1.005419
5.060;1.769209;0.994173
5.070;1.762793;0.982448
5.080;1.757371;0.970124
5.090;1.752722;0.957099
5.100;1.748314;0.943292
5.110;1.743565;0.928657
5.120;1.738098;0.913147
5.130;1.731876;0.896653
5.140;1.725176;0.878981
5.150;1.718409;0.859912
5.160;1.711883;0.839321
5.170;1.705633;0.817302
5.180;1.699380;0.794231
5.190;1.692603;0.770731
5.200;1.684632;0.747538
5.210;1.674720;0.725309
5.220;1.662083;0.704451
5.230;1.645941;0.685023
5.240;1.625598;0.666743
5.250;1.600530;0.649071
5.260;1.570481;0.631348
5.270;1.535520;0.612966
5.280;1.496047;0.593551
5.290;1.452690;0.573087
5.300;1.406118;0.551930
5.310;1.356804;0.530679
5.320;1.304838;0.509949
5.330;1.249843;0.490135
5.340;1.191042;0.471290
5.350;1.127452;0.453151
5.360;1.058157;0.435276
5.370;0.982598;0.417197
5.380;0.900795;0.398552
5.390;0.813431;0.379177
5.400;0.721773;0.359201
5.410;0.627440;0.339106
5.420;0.532093;0.319712
5.430;0.437151;0.302040
5.440;0.343635;0.287075
5.450;0.252188;0.275508
5.460;0.163223;0.267563
5.470;0.077092;0.262956
5.480;-0.005798;0.261018
5.490;-0.084970;0.260916
5.500;-0.159937;0.261914
5.510;-0.230312;0.263552
5.520;-0.295927;0.265685
5.530;-0.356916;0.268382
5.540;-0.413746;0.271765
5.550;-0.467142;0.275876
5.560;-0.517963;0.280611
5.570;-0.567040;0.285707
5.580;-0.615032;0.290734
5.590;-0.662301;0.295093
5.600;-0.708782;0.298043
5.610;-0.753903;0.298791
5.620;-0.796601;0.296645
5.630;-0.835534;0.291169
5.640;-0.869445;0.282284
5.650;-0.897543;0.270237
5.660;-0.919723;0.255480
5.670;-0.936518;0.238496
5.680;-0.948845;0.219650
5.690;-0.957675;0.199121
5.700;-0.963780;0.176929
5.710;-0.967585;0.153028
5.720;-0.969120;0.127429
5.730;-0.968018;0.100279
5.740;-0.963556;0.071864
5.750;-0.954759;0.042516
5.760;-0.940588;0.012500
5.770;-0.920188;-0.018053
5.780;-0.893128;-0.049120
5.790;-0.859595;-0.080668
5.800;-0.820486;-0.112531
5.810;-0.777382;-0.144286
5.820;-0.732405;-0.175212
5.830;-0.687972;-0.204327
5.840;-0.646509;-0.230519
5.850;-0.610224;-0.252755
5.860;-0.581013;-0.270310
5.870;-0.560465;-0.282968
5.880;-0.549877;-0.291123
5.890;-0.550190;-0.295772
5.900;-0.561843;-0.298388
5.910;-0.584620;-0.300713
5.920;-0.617585;-0.304485
5.930;-0.659163;-0.311155
5.940;-0.707343;-0.321689
5.950;-0.759922;-0.336524
5.960;-0.814742;-0.355686
5.970;-0.869881;-0.378955
5.980;-0.923821;-0.405985
5.990;-0.975582;-0.436345
6.000;-1.024790;-0.469513
6.010;-1.071644;-0.504863
6.020;-1.116754;-0.541665
6.030;-1.160896;-0.579114
6.040;-1.204712;-0.616395
6.050;-1.248431;-0.652745
6.060;-1.291666;-0.687503
6.070;-1.333360;-0.720108
6.080;-1.371894;-0.750078
6.090;-1.405338;-0.776997
6.100;-1.431799;-0.800501
6.110;-1.449788;-0.820328
6.120;-1.458532;-0.836409
6.130;-1.458158;-0.848979
6.140;-1.449699;-0.858627
6.150;-1.434878;-0.866225
6.160;-1.415715;-0.872749
6.170;-1.394045;-0.879068
6.180;-1.371084;-0.885787
6.190;-1.347194;-0.893197
6.200;-1.321913;-0.901336
6.210;-1.294265;-0.910096
6.220;-1.263207;-0.919330
6.230;-1.228067;-0.928914
6.240;-1.188824;-0.938728
6.250;-1.146186;-0.948578
6.260;-1.101481;-0.958065
6.270;-1.056481;-0.966495
6.280;-1.013211;-0.972895
6.290;-0.973778;-0.976197
6.300;-0.940179;-0.975526
6.310;-0.914034;-0.970477
6.320;-0.896283;-0.961257
6.330;-0.886926;-0.948611
6.340;-0.884938;-0.933548
6.350;-0.888424;-0.916979
6.360;-0.894971;-0.899421
6.370;-0.902060;-0.880861
6.380;-0.907386;-0.860836
6.390;-0.909032;-0.838655
6.400;-0.905506;-0.813679
6.410;-0.895731;-0.785563
6.420;-0.879042;-0.754416
6.430;-0.855177;-0.720857
6.440;-0.824242;-0.685965
6.450;-0.786602;-0.651117
6.460;-0.742752;-0.617713
6.470;-0.693191;-0.586875
6.480;-0.638390;-0.559212
6.490;-0.578870;-0.534747
6.500;-0.515336;-0.513014
6.510;-0.448788;-0.493267
6.520;-0.380523;-0.474700
6.530;-0.312035;-0.456597
6.540;-0.244839;-0.438424
6.550;-0.180301;-0.419859
6.560;-0.119501;-0.400809
6.570;-0.063175;-0.381391
6.580;-0.011718;-0.361883
6.590;0.034782;-0.342657
6.600;0.076498;-0.324122
6.610;0.113818;-0.306692
6.620;0.147288;-0.290794
6.630;0.177553;-0.276872
6.640;0.205271;-0.265354
6.650;0.231042;-0.256568
6.660;0.255349;-0.250606
6.670;0.278548;-0.247225
6.680;0.300939;-0.245802
6.690;0.322890;-0.245401
6.700;0.344950;-0.244909
6.710;0.367902;-0.243218
6.720;0.392703;-0.239417
6.730;0.420353;-0.232918
6.740;0.451727;-0.223514
6.750;0.487405;-0.211350
6.760;0.527538;-0.196839
6.770;0.571790;-0.180538
6.780;0.619368;-0.163013
6.790;0.669143;-0.144669
6.800;0.719863;-0.125594
6.810;0.770392;-0.105435
6.820;0.819919;-0.083411
6.830;0.868042;-0.058515
6.840;0.914705;-0.029864
6.850;0.960048;0.002884
6.860;1.004248;0.039249
6.870;1.047415;0.077933
6.880;1.089552;0.117137
6.890;1.130535;0.155089
6.900;1.170115;0.190519
6.910;1.207960;0.222919
6.920;1.243777;0.252506
6.930;1.277477;0.279990
6.940;1.309316;0.306280
6.950;1.339950;0.332258
6.960;1.370349;0.358637
6.970;1.401594;0.385897
6.980;1.434652;0.414251
6.990;1.470193;0.443637
7.000;1.508523;0.473734
7.010;1.549617;0.504008
7.020;1.593221;0.533819
7.030;1.638994;0.562570
7.040;1.686624;0.589835
7.050;1.735871;0.615426
7.060;1.786533;0.639357
7.070;1.838373;0.661750
7.080;1.891073;0.682728
7.090;1.944242;0.702342
7.100;1.997473;0.720568
7.110;2.050393;0.737312
7.120;2.102670;0.752430
7.130;2.153989;0.765721
7.140;2.204004;0.776948
7.150;2.252334;0.785887
7.160;2.298608;0.792403
7.170;2.342551;0.796533
7.180;2.384059;0.798541
7.190;2.423235;0.798904
7.200;2.460375;0.798227
7.210;2.495939;0.797090
7.220;2.530518;0.795912
7.230;2.564784;0.794896
7.240;2.599401;0.794071
7.250;2.634914;0.793414
7.260;2.671648;0.792933
7.270;2.709684;0.792671
7.280;2.748908;0.792619
7.290;2.789103;0.792624
7.300;2.830007;0.792384
7.310;2.871282;0.791542
7.320;2.912412;0.789843
7.330;2.952590;0.787254
7.340;2.990652;0.783965
7.350;3.025102;0.780256
7.360;3.054230;0.776283
7.370;3.076319;0.771897
7.380;3.089894;0.766580
7.390;3.093975;0.759548
7.400;3.088287;0.749983
7.410;3.073344;0.737270
7.420;3.050338;0.721137
7.430;3.020824;0.701595
7.440;2.986283;0.678737
7.450;2.947703;0.652517
7.460;2.905338;0.622632
7.470;2.858707;0.588575
7.480;2.806827;0.549828
7.490;2.748535;0.506113
7.500;2.682798;0.457559
7.510;2.608894;0.404736
7.520;2.526483;0.348539
7.530;2.435605;0.290021
7.540;2.336642;0.230289
7.550;2.230257;0.170528
7.560;2.117295;0.112140
7.570;1.998672;0.056859
7.580;1.875311;0.006700
7.590;1.748230;-0.036372
7.600;1.618789;-0.070936
7.610;1.488993;-0.096579
7.620;1.361639;-0.114074
7.630;1.240158;-0.125175
7.640;1.128152;-0.132115
7.650;1.028796;-0.136997
7.660;0.944310;-0.141334
7.670;0.875644;-0.145864
7.680;0.822442;-0.150663
7.690;0.783251;-0.155454
7.700;0.755896;-0.159934
7.710;0.737938;-0.164046
7.720;0.727095;-0.168113
7.730;0.721558;-0.172848
7.740;0.720126;-0.179226
7.750;0.722176;-0.188262
7.760;0.727513;-0.200735
7.770;0.736197;-0.216927
7.780;0.748388;-0.236442
7.790;0.764224;-0.258167
7.800;0.783723;-0.280437
7.810;0.806693;-0.301378
7.820;0.832676;-0.319347
7.830;0.860974;-0.333312
7.840;0.890743;-0.343036
7.850;0.921123;-0.348985
7.860;0.951366;-0.352026
7.870;0.980950;-0.353020
7.880;1.009681;-0.352496
7.890;1.037754;-0.350508
7.900;1.065709;-0.346719
7.910;1.094233;-0.340650
7.920;1.123837;-0.331966
7.930;1.154549;-0.320686
7.940;1.185791;-0.307251
7.950;1.216519;-0.292449
7.960;1.245601;-0.277208
7.970;1.272255;-0.262347
7.980;1.296372;-0.248334
7.990;1.318583;-0.235173
8.000;1.340047;-0.222465
8.010;1.362006;-0.209629
8.020;1.385299;-0.196193
8.030;1.410029;-0.182006
8.040;1.435524;-0.167270
8.050;1.460602;-0.152401
8.060;1.484001;-0.137815
8.070;1.504760;-0.123749
8.080;1.522416;-0.110186
8.090;1.536973;-0.096875
8.100;1.548726;-0.083437
8.110;1.558034;-0.069511
8.120;1.565134;-0.054889
8.130;1.570050;-0.039576
8.140;1.572606;-0.023743
8.150;1.572539;-0.007625
