Time[s];COPx[cm];COPy[cm]
0.010;2.607992;-1.230100
0.020;2.613570;-1.238646
0.030;2.620630;-1.248260
0.040;2.630372;-1.259928
0.050;2.643585;-1.274448
0.060;2.660529;-1.292247
0.070;2.680926;-1.313265
0.080;2.704041;-1.336965
0.090;2.728858;-1.362511
0.100;2.754304;-1.389015
0.110;2.779456;-1.415750
0.120;2.803672;-1.442265
0.130;2.826625;-1.468375
0.140;2.848226;-1.494059
0.150;2.868512;-1.519315
0.160;2.887524;-1.544049
0.170;2.905269;-1.568034
0.180;2.921746;-1.590969
0.190;2.937028;-1.612564
0.200;2.951319;-1.632618
0.210;2.964961;-1.651059
0.220;2.978384;-1.667940
0.230;2.992020;-1.683413
0.240;3.006181;-1.697676
0.250;3.020942;-1.710919
0.260;3.036089;-1.723267
0.270;3.051173;-1.734764
0.280;3.065686;-1.745418
0.290;3.079265;-1.755297
0.300;3.091849;-1.764627
0.310;3.103716;-1.773821
0.320;3.115392;-1.783400
0.330;3.127450;-1.793843
0.340;3.140305;-1.805421
0.350;3.154059;-1.818114
0.360;3.168478;-1.831657
0.370;3.183093;-1.845678
0.380;3.197370;-1.859860
0.390;3.210873;-1.874023
0.400;3.223356;-1.888090
0.410;3.234745;-1.901991
0.420;3.245045;-1.915558
0.430;3.254253;-1.928501
0.440;3.262336;-1.940481
0.450;3.269260;-1.951237
0.460;3.275029;-1.960675
0.470;3.279663;-1.968884
0.480;3.283096;-1.976058
0.490;3.285066;-1.982394
0.500;3.285104;-1.988027
0.510;3.282672;-1.993028
0.520;3.277405;-1.997463
0.530;3.269306;-2.001473
0.540;3.258781;-2.005314
0.550;3.246515;-2.009345
0.560;3.233236;-2.013952
0.570;3.219472;-2.019436
0.580;3.205395;-2.025907
0.590;3.190798;-2.033213
0.600;3.175238;-2.040943
0.610;3.158255;-2.048525
0.620;3.139568;-2.055420
0.630;3.119172;-2.061308
0.640;3.097319;-2.066162
0.650;3.074409;-2.070137
0.660;3.050860;-2.073351
0.670;3.027014;-2.075707
0.680;3.003114;-2.076860
0.690;2.979342;-2.076322
0.700;2.955859;-2.073621
0.710;2.932818;-2.068444
0.720;2.910362;-2.060715
0.730;2.888600;-2.050610
0.740;2.867592;-2.038501
0.750;2.847316;-2.024858
0.760;2.827666;-2.010159
0.770;2.808478;-1.994799
0.780;2.789618;-1.979007
0.790;2.771075;-1.962784
0.800;2.753016;-1.945908
0.810;2.735791;-1.928018
0.820;2.719870;-1.908792
0.830;2.705735;-1.888142
0.840;2.693738;-1.866352
0.850;2.683966;-1.844081
0.860;2.676187;-1.822235
0.870;2.669913;-1.801749
0.880;2.664557;-1.783379
0.890;2.659635;-1.767595
0.900;2.654903;-1.754554
0.910;2.650390;-1.744154
0.920;2.646314;-1.736114
0.930;2.642942;-1.730063
0.940;2.640455;-1.725625
0.950;2.638884;-1.722487
0.960;2.638093;-1.720441
0.970;2.637817;-1.719416
0.980;2.637729;-1.719467
0.990;2.637508;-1.720716
1.000;2.636911;-1.723256
1.010;2.635825;-1.727058
1.020;2.634294;-1.731897
1.030;2.632509;-1.737338
1.040;2.630758;-1.742762
1.050;2.629344;-1.747437
1.060;2.628529;-1.750650
1.070;2.628494;-1.751868
1.080;2.629372;-1.750878
1.090;2.631307;-1.747850
1.100;2.634532;-1.743255
1.110;2.639392;-1.737690
1.120;2.646283;-1.731648
1.130;2.655506;-1.725388
1.140;2.667122;-1.718937
1.150;2.680894;-1.712241
1.160;2.696365;-1.705330
1.170;2.713021;-1.698407
1.180;2.730432;-1.691815
1.190;2.748301;-1.685923
1.200;2.766424;-1.680984
1.210;2.784623;-1.677026
1.220;2.802691;-1.673795
1.230;2.820366;-1.670777
1.240;2.837347;-1.667311
1.250;2.853378;-1.662773
1.260;2.868369;-1.656766
1.270;2.882472;-1.649246
1.280;2.896069;-1.640556
1.290;2.909648;-1.631357
1.300;2.923630;-1.622497
1.310;2.938240;-1.614816
1.320;2.953452;-1.608952
1.330;2.969011;-1.605193
1.340;2.984498;-1.603427
1.350;2.999427;-1.603158
1.360;3.013332;-1.603626
1.370;3.025851;-1.604003
1.380;3.036783;-1.603621
1.390;3.046121;-1.602118
1.400;3.054040;-1.599466
1.410;3.060837;-1.595891
1.420;3.066813;-1.591746
1.430;3.072165;-1.587370
1.440;3.076930;-1.582970
1.450;3.081018;-1.578533
1.460;3.084299;-1.573816
1.470;3.086692;-1.568433
1.480;3.088238;-1.562009
1.490;3.089133;-1.554310
1.500;3.089720;-1.545302
1.510;3.090398;-1.535156
1.520;3.091474;-1.524216
1.530;3.093000;-1.512936
1.540;3.094710;-1.501756
1.550;3.096107;-1.490957
1.560;3.096688;-1.480579
1.570;3.096171;-1.470433
1.580;3.094643;-1.460194
1.590;3.092566;-1.449518
1.600;3.090661;-1.438125
1.610;3.089719;-1.425828
1.620;3.090383;-1.412527
1.630;3.092959;-1.398169
1.640;3.097313;-1.382735
1.650;3.102905;-1.366263
1.660;3.108956;-1.348894
1.670;3.114701;-1.330892
1.680;3.119637;-1.312612
1.690;3.123690;-1.294447
1.700;3.127242;-1.276763
1.710;3.131030;-1.259822
1.720;3.135942;-1.243713
1.730;3.142788;-1.228351
1.740;3.152097;-1.213557
1.750;3.163994;-1.199210
1.760;3.178164;-1.185343
1.770;3.193941;-1.172146
1.780;3.210485;-1.159856
1.790;3.227009;-1.148599
1.800;3.242988;-1.138273
1.810;3.258260;-1.128518
1.820;3.272975;-1.118781
1.830;3.287464;-1.108447
1.840;3.302064;-1.096976
1.850;3.317014;-1.084012
1.860;3.332414;-1.069420
1.870;3.348250;-1.053282
1.880;3.364453;-1.035840
1.890;3.380952;-1.017409
1.900;3.397696;-0.998254
1.910;3.414654;-0.978458
1.920;3.431840;-0.957866
1.930;3.449355;-0.936130
1.940;3.467445;-0.912878
1.950;3.486483;-0.887894
1.960;3.506860;-0.861229
1.970;3.528782;-0.833157
1.980;3.552092;-0.804061
1.990;3.576209;-0.774318
2.000;3.600255;-0.744320
2.010;3.623324;-0.714597
2.020;3.644748;-0.685964
2.030;3.664226;-0.659514
2.040;3.681760;-0.636423
2.050;3.697473;-0.617645
2.060;3.711434;-0.603660
2.070;3.723578;-0.594382
2.080;3.733725;-0.589253
2.090;3.741620;-0.587418
2.100;3.746964;-0.587924
2.110;3.749399;-0.589887
2.120;3.748503;-0.592629
2.130;3.743807;-0.595770
2.140;3.734880;-0.599242
2.150;3.721455;-0.603220
2.160;3.703558;-0.607976
2.170;3.681590;-0.613702
2.180;3.656346;-0.620346
2.190;3.628938;-0.627520
2.200;3.600644;-0.634530
2.210;3.572696;-0.640508
2.220;3.546071;-0.644651
2.230;3.521373;-0.646455
2.240;3.498837;-0.645880
2.250;3.478462;-0.643375
2.260;3.460176;-0.639737
2.270;3.443986;-0.635859
2.280;3.430054;-0.632436
2.290;3.418690;-0.629768
2.300;3.410261;-0.627697
2.310;3.405041;-0.625725
2.320;3.403052;-0.623235
2.330;3.403939;-0.619738
2.340;3.406946;-0.615023
2.350;3.410995;-0.609166
2.360;3.414876;-0.602416
2.370;3.417501;-0.595037
2.380;3.418115;-0.587201
2.390;3.416402;-0.578949
2.400;3.412417;-0.570220
2.410;3.406418;-0.560904
2.420;3.398682;-0.550877
2.430;3.389399;-0.540006
2.440;3.378667;-0.528126
2.450;3.366562;-0.515043
2.460;3.353215;-0.500574
2.470;3.338858;-0.484622
2.480;3.323818;-0.467261
2.490;3.308475;-0.448791
2.500;3.293217;-0.429688
2.510;3.278399;-0.410489
2.520;3.264338;-0.391639
2.530;3.251305;-0.373425
2.540;3.239521;-0.355976
2.550;3.229161;-0.339294
2.560;3.220372;-0.323248
2.570;3.213262;-0.307579
2.580;3.207852;-0.291940
2.590;3.203998;-0.276025
2.600;3.201336;-0.259707
2.610;3.199325;-0.243115
2.620;3.197373;-0.226616
2.630;3.195007;-0.210729
2.640;3.191966;-0.195997
2.650;3.188164;-0.182857
2.660;3.183554;-0.171529
2.670;3.178002;-0.161926
2.680;3.171233;-0.153610
2.690;3.162867;-0.145831
2.700;3.152534;-0.137690
2.710;3.140003;-0.128356
2.720;3.125301;-0.117283
2.730;3.108741;-0.104340
2.740;3.090860;-0.089825
2.750;3.072281;-0.074350
2.760;3.053539;-0.058596
2.770;3.034935;-0.043032
2.780;3.016459;-0.027693
2.790;2.997810;-0.012152
2.800;2.978513;0.004301
2.810;2.958115;0.022347
2.820;2.936372;0.042329
2.830;2.913355;0.064065
2.840;2.889456;0.086818
2.850;2.865299;0.109442
2.860;2.841609;0.130637
2.870;2.819078;0.149230
2.880;2.798233;0.164406
2.890;2.779339;0.175827
2.900;2.762347;0.183651
2.910;2.746909;0.188462
2.920;2.732498;0.191121
2.930;2.718590;0.192591
2.940;2.704842;0.193731
2.950;2.691180;0.195118
2.960;2.677771;0.196920
2.970;2.664875;0.198864
2.980;2.652675;0.200321
2.990;2.641146;0.200524
3.000;2.630027;0.198845
3.010;2.618892;0.195050
3.020;2.607287;0.189420
3.030;2.594856;0.182683
3.040;2.581431;0.175780
3.050;2.567058;0.169570
3.060;2.551983;0.164584
3.070;2.536583;0.160932
3.080;2.521266;0.158347
3.090;2.506340;0.156314
3.100;2.491899;0.154218
3.110;2.477773;0.151491
3.120;2.463566;0.147745
3.130;2.448785;0.142909
3.140;2.433021;0.137289
3.150;2.416132;0.131525
3.160;2.398366;0.126432
3.170;2.380384;0.122766
3.180;2.363140;0.121009
3.190;2.347632;0.121265
3.200;2.334609;0.123291
3.210;2.324342;0.126646
3.220;2.316559;0.130848
3.230;2.310548;0.135501
3.240;2.305373;0.140354
3.250;2.300129;0.145309
3.260;2.294176;0.150371
3.270;2.287295;0.155586
3.280;2.279743;0.160966
3.290;2.272171;0.166438
3.300;2.265388;0.171849
3.310;2.260037;0.177032
3.320;2.256291;0.181909
3.330;2.253702;0.186564
3.340;2.251284;0.191223
3.350;2.247820;0.196126
3.360;2.242279;0.201356
3.370;2.234202;0.206717
3.380;2.223874;0.211704
3.390;2.212210;0.215618
3.400;2.200412;0.217761
3.410;2.189550;0.217647
3.420;2.180287;0.215150
3.430;2.172835;0.210534
3.440;2.167090;0.204375
3.450;2.162846;0.197371
3.460;2.159961;0.190086
3.470;2.158418;0.182743
3.480;2.158286;0.175132
3.490;2.159629;0.166698
3.500;2.162420;0.156748
3.510;2.166526;0.144721
3.520;2.171762;0.130386
3.530;2.177991;0.113910
3.540;2.185179;0.095770
3.550;2.193403;0.076576
3.560;2.202824;0.056889
3.570;2.213649;0.037131
3.580;2.226096;0.017585
3.590;2.240338;-0.001534
3.600;2.256382;-0.020027
3.610;2.273949;-0.037712
3.620;2.292419;-0.054522
3.630;2.310937;-0.070613
3.640;2.328663;-0.086409
3.650;2.345050;-0.102521
3.660;2.359995;-0.119549
3.670;2.373794;-0.137862
3.680;2.386938;-0.157491
3.690;2.399874;-0.178190
3.700;2.412806;-0.199617
3.710;2.425610;-0.221517
3.720;2.437873;-0.243782
3.730;2.449036;-0.266391
3.740;2.458575;-0.289308
3.750;2.466152;-0.312431
3.760;2.471648;-0.335627
3.770;2.475112;-0.358825
3.780;2.476658;-0.382074
3.790;2.476370;-0.405554
3.800;2.474257;-0.429493
3.810;2.470242;-0.454056
3.820;2.464190;-0.479217
3.830;2.455969;-0.504641
3.840;2.445533;-0.529620
3.850;2.433029;-0.553098
3.860;2.418891;-0.573851
3.870;2.403870;-0.590783
3.880;2.388942;-0.603243
3.890;2.375100;-0.611213
3.900;2.363089;-0.615285
3.910;2.353212;-0.616474
3.920;2.345271;-0.615908
3.930;2.338682;-0.614527
3.940;2.332696;-0.612845
3.950;2.326661;-0.610865
3.960;2.320240;-0.608207
3.970;2.313504;-0.604381
3.980;2.306872;-0.599115
3.990;2.300965;-0.592591
4.000;2.296421;-0.585507
4.010;2.293750;-0.578965
4.020;2.293222;-0.574216
4.030;2.294802;-0.572373
4.040;2.298124;-0.574182
4.050;2.302518;-0.579951
4.060;2.307121;-0.589641
4.070;2.311060;-0.603076
4.080;2.313655;-0.620163
4.090;2.314552;-0.641005
4.100;2.313743;-0.665844
4.110;2.311457;-0.694850
4.120;2.307985;-0.727884
4.130;2.303507;-0.764397
4.140;2.298020;-0.803521
4.150;2.291364;-0.844317
4.160;2.283331;-0.886038
4.170;2.273788;-0.928308
4.180;2.262754;-0.971099
4.190;2.250422;-1.014509
4.200;2.237153;-1.058418
4.210;2.223454;-1.102175
4.220;2.209974;-1.144486
4.230;2.197449;-1.183579
4.240;2.186593;-1.217593
4.250;2.177936;-1.245043
4.260;2.171713;-1.265166
4.270;2.167856;-1.278091
4.280;2.166103;-1.284775
4.290;2.166131;-1.286753
4.300;2.167626;-1.285761
4.310;2.170251;-1.283328
4.320;2.173590;-1.280461
4.330;2.177135;-1.277526
4.340;2.180367;-1.274357
4.350;2.182888;-1.270524
4.360;2.184530;-1.265628
4.370;2.185404;-1.259465
4.380;2.185870;-1.252018
4.390;2.186441;-1.243317
4.400;2.187626;-1.233323
4.410;2.189753;-1.221952
4.420;2.192841;-1.209230
4.430;2.196566;-1.195465
4.440;2.200351;-1.181278
4.450;2.203540;-1.167465
4.460;2.205590;-1.154790
4.470;2.206217;-1.143793
4.480;2.205458;-1.134673
4.490;2.203639;-1.127253
4.500;2.201272;-1.121023
4.510;2.198931;-1.115263
4.520;2.197156;-1.109199
4.530;2.196426;-1.102160
4.540;2.197170;-1.093708
4.550;2.199769;-1.083756
4.560;2.204532;-1.072621
4.570;2.211648;-1.060998
4.580;2.221171;-1.049792
4.590;2.233040;-1.039875
4.600;2.247124;-1.031838
4.610;2.263268;-1.025849
4.620;2.281293;-1.021655
4.630;2.300978;-1.018726
4.640;2.322016;-1.016474
4.650;2.343999;-1.014469
4.660;2.366464;-1.012590
4.670;2.389000;-1.011074
4.680;2.411362;-1.010447
4.690;2.433536;-1.011352
4.700;2.455700;-1.014330
4.710;2.478115;-1.019638
4.720;2.500997;-1.027172
4.730;2.524439;-1.036520
4.740;2.548396;-1.047088
4.750;2.572707;-1.058235
4.760;2.597117;-1.069389
4.770;2.621273;-1.080149
4.780;2.644720;-1.090357
4.790;2.666935;-1.100109
4.800;2.687411;-1.109681
4.810;2.705776;-1.119403
4.820;2.721874;-1.129524
4.830;2.735769;-1.140135
4.840;2.747679;-1.151150
4.850;2.757851;-1.162335
4.860;2.766482;-1.173362
4.870;2.773714;-1.183896
4.880;2.779681;-1.193691
4.890;2.784570;-1.202646
4.900;2.788652;-1.210793
4.910;2.792262;-1.218200
4.920;2.795750;-1.224853
4.930;2.799415;-1.230563
4.940;2.803438;-1.234904
4.950;2.807841;-1.237250
4.960;2.812497;-1.236926
4.970;2.817194;-1.233440
4.980;2.821743;-1.226719
4.990;2.826066;-1.217201
5.000;2.830212;-1.205733
5.010;2.834296;-1.193328
5.020;2.838410;-1.180892
5.030;2.842570;-1.169010
5.040;2.846740;-1.157843
5.050;2.850897;-1.147128
5.060;2.855088;-1.136269
5.070;2.859430;-1.124531
5.080;2.864077;-1.111277
5.090;2.869191;-1.096196
5.100;2.874905;-1.079431
5.110;2.881264;-1.061555
5.120;2.888163;-1.043413
5.130;2.895307;-1.025883
5.140;2.902262;-1.009613
5.150;2.908560;-0.994813
5.160;2.913834;-0.981149
5.170;2.917952;-0.967816
5.180;2.921102;-0.953774
5.190;2.923800;-0.938061
5.200;2.926791;-0.920050
5.210;2.930879;-0.899568
5.220;2.936739;-0.876873
5.230;2.944762;-0.852543
5.240;2.954970;-0.827344
5.250;2.967017;-0.802117
5.260;2.980256;-0.777676
5.270;2.993877;-0.754727
5.280;3.007103;-0.733780
5.290;3.019397;-0.715085
5.300;3.030635;-0.698650
5.310;3.041180;-0.684337
5.320;3.051787;-0.672018
5.330;3.063364;-0.661693
5.340;3.076645;-0.653502
5.350;3.091924;-0.647630
5.360;3.108980;-0.644134
5.370;3.127210;-0.642775
5.380;3.145897;-0.642927
5.390;3.164472;-0.643624
5.400;3.182678;-0.643780
5.410;3.200600;-0.642507
5.420;3.218579;-0.639387
5.430;3.237046;-0.634553
5.440;3.256335;-0.628540
5.450;3.276518;-0.621969
5.460;3.297316;-0.615224
5.470;3.318130;-0.608274
5.480;3.338222;-0.600708
5.490;3.356968;-0.591944
5.500;3.374083;-0.581496
5.510;3.389692;-0.569171
5.520;3.404215;-0.555149
5.530;3.418154;-0.539939
5.540;3.431914;-0.524243
5.550;3.445758;-0.508777
5.560;3.459881;-0.494079
5.570;3.474497;-0.480368
5.580;3.489880;-0.467518
5.590;3.506296;-0.455122
5.600;3.523898;-0.442648
5.610;3.542621;-0.429633
5.620;3.562160;-0.415890
5.630;3.582032;-0.401680
5.640;3.601678;-0.387763
5.650;3.620586;-0.375276
5.660;3.638373;-0.365411
5.670;3.654818;-0.358995
5.680;3.669840;-0.356131
5.690;3.683449;-0.356048
5.700;3.695692;-0.357254
5.710;3.706610;-0.357919
5.720;3.716188;-0.356360
5.730;3.724308;-0.351450
5.740;3.730750;-0.342845
5.750;3.735297;-0.330991
5.760;3.737893;-0.316946
5.770;3.738763;-0.302075
5.780;3.738398;-0.287704
5.790;3.737398;-0.274795
5.800;3.736223;-0.263736
5.810;3.734974;-0.254266
5.820;3.733329;-0.245568
5.830;3.730677;-0.236507
5.840;3.726405;-0.225941
5.850;3.720199;-0.213023
5.860;3.712209;-0.197447
5.870;3.703003;-0.179573
5.880;3.693328;-0.160428
5.890;3.683805;-0.141516
5.900;3.674711;-0.124452
5.910;3.665930;-0.110543
5.920;3.657094;-0.100495
5.930;3.647818;-0.094337
5.940;3.637910;-0.091587
5.950;3.627442;-0.091513
5.960;3.616684;-0.093386
5.970;3.605928;-0.096620
5.980;3.595294;-0.100776
5.990;3.584634;-0.105491
6.000;3.573602;-0.110391
6.010;3.561864;-0.115062
6.020;3.549352;-0.119090
6.030;3.536427;-0.122144
6.040;3.523835;-0.124067
6.050;3.512472;-0.124930
6.060;3.503038;-0.125022
6.070;3.495715;-0.124768
6.080;3.490032;-0.124600
6.090;3.484996;-0.124801
6.100;3.479435;-0.125408
6.110;3.472399;-0.126192
6.120;3.463451;-0.126728
6.130;3.452719;-0.126518
6.140;3.440739;-0.125116
6.150;3.428183;-0.122213
6.160;3.415620;-0.117690
6.170;3.403377;-0.111617
6.180;3.391534;-0.104226
6.190;3.379956;-0.095841
6.200;3.368335;-0.086773
6.210;3.356215;-0.077219
6.220;3.343040;-0.067218
6.230;3.328277;-0.056717
6.240;3.311588;-0.045707
6.250;3.292996;-0.034366
6.260;3.272963;-0.023121
6.270;3.252330;-0.012599
6.280;3.232109;-0.003473
6.290;3.213197;0.003724
6.300;3.196114;0.008773
6.310;3.180904;0.011813
6.320;3.167228;0.013254
6.330;3.154604;0.013565
6.340;3.142651;0.013037
6.350;3.131224;0.011654
6.360;3.120405;0.009105
6.370;3.110388;0.004949
6.380;3.101340;-0.001150
6.390;3.093312;-0.009220
6.400;3.086205;-0.018886
6.410;3.079792;-0.029455
6.420;3.073754;-0.040159
6.430;3.067705;-0.050459
6.440;3.061223;-0.060277
6.450;3.053897;-0.070042
6.460;3.045390;-0.080514
6.470;3.035503;-0.092453
6.480;3.024182;-0.106296
6.490;3.011492;-0.121984
6.500;2.997564;-0.139033
6.510;2.982558;-0.156759
6.520;2.966653;-0.174507
6.530;2.950026;-0.191762
6.540;2.932814;-0.208112
6.550;2.915073;-0.223141
6.560;2.896773;-0.236368
6.570;2.877857;-0.247297
6.580;2.858350;-0.255569
6.590;2.838463;-0.261140
6.600;2.818627;-0.264397
6.610;2.799418;-0.266167
6.620;2.781401;-0.267584
6.630;2.764967;-0.269865
6.640;2.750235;-0.274020
6.650;2.737040;-0.280621
6.660;2.725011;-0.289697
6.670;2.713697;-0.300818
6.680;2.702703;-0.313331
6.690;2.691767;-0.326621
6.700;2.680774;-0.340311
6.710;2.669707;-0.354331
6.720;2.658585;-0.368892
6.730;2.647425;-0.384382
6.740;2.636221;-0.401234
6.750;2.624924;-0.419809
6.760;2.613403;-0.440327
6.770;2.601422;-0.462851
6.780;2.588672;-0.487284
6.790;2.574861;-0.513350
6.800;2.559842;-0.540569
6.810;2.543709;-0.568215
6.820;2.526809;-0.595333
6.830;2.509687;-0.620826
6.840;2.492975;-0.643642
6.850;2.477281;-0.663013
6.860;2.463088;-0.678637
6.870;2.450672;-0.690762
6.880;2.440085;-0.700116
6.890;2.431189;-0.707699
6.900;2.423746;-0.714485
6.910;2.417504;-0.721142
6.920;2.412206;-0.727876
6.930;2.407554;-0.734460
6.940;2.403170;-0.740421
6.950;2.398633;-0.745254
6.960;2.393582;-0.748573
6.970;2.387850;-0.750163
6.980;2.381510;-0.749971
6.990;2.374795;-0.748081
7.000;2.367907;-0.744679
7.010;2.360840;-0.739992
7.020;2.353330;-0.734230
7.030;2.344974;-0.727545
7.040;2.335434;-0.720017
7.050;2.324614;-0.711651
7.060;2.312721;-0.702349
7.070;2.300172;-0.691894
7.080;2.287438;-0.679977
7.090;2.274878;-0.666285
7.100;2.262664;-0.650629
7.110;2.250794;-0.633064
7.120;2.239162;-0.613916
7.130;2.227657;-0.593705
7.140;2.216232;-0.573000
7.150;2.204966;-0.552277
7.160;2.194100;-0.531845
7.170;2.184044;-0.511841
7.180;2.175314;-0.492238
7.190;2.168404;-0.472850
7.200;2.163622;-0.453318
7.210;2.160972;-0.433150
7.220;2.160124;-0.411847
7.230;2.160498;-0.389081
7.240;2.161430;-0.364854
7.250;2.162331;-0.339525
7.260;2.162773;-0.313694
7.270;2.162469;-0.287999
7.280;2.161182;-0.262944
7.290;2.158648;-0.238798
7.300;2.154581;-0.215586
7.310;2.148732;-0.193123
7.320;2.140953;-0.171071
7.330;2.131193;-0.149015
7.340;2.119442;-0.126534
7.350;2.105698;-0.103281
7.360;2.089980;-0.079043
7.370;2.072404;-0.053756
7.380;2.053252;-0.027481
7.390;2.032981;-0.000362
7.400;2.012132;0.027407
7.410;1.991189;0.055590
7.420;1.970450;0.083905
7.430;1.949972;0.112067
7.440;1.929604;0.139881
7.450;1.909062;0.167371
7.460;1.888043;0.194849
7.470;1.866303;0.222835
7.480;1.843698;0.251869
7.490;1.820185;0.282296
7.500;1.795790;0.314146
7.510;1.770568;0.347148
7.520;1.744549;0.380831
7.530;1.717680;0.414656
7.540;1.689779;0.448131
7.550;1.660517;0.480875
7.560;1.629446;0.512585
7.570;1.596070;0.542936
7.580;1.559971;0.571441
7.590;1.520949;0.597405
7.600;1.479126;0.620011
7.610;1.435000;0.638538
7.620;1.389405;0.652619
7.630;1.343396;0.662410
7.640;1.298070;0.668601
7.650;1.254343;0.672230
7.660;1.212730;0.674357
7.670;1.173215;0.675688
7.680;1.135269;0.676294
7.690;1.098014;0.675511
7.700;1.060498;0.672068
7.710;1.021948;0.664397
7.720;0.981959;0.651038
7.730;0.940561;0.631037
7.740;0.898174;0.604223
7.750;0.855485;0.571255
7.760;0.813271;0.533403
7.770;0.772216;0.492120
7.780;0.732768;0.448604
7.790;0.695095;0.403493
7.800;0.659149;0.356794
7.810;0.624825;0.308033
7.820;0.592159;0.256538
7.830;0.561495;0.201767
7.840;0.533559;0.143601
7.850;0.509388;0.082518
7.860;0.490118;0.019600
7.870;0.476722;-0.043630
7.880;0.469776;-0.105463
7.890;0.469322;-0.164296
7.900;0.474844;-0.218862
7.910;0.485361;-0.268366
7.920;0.499633;-0.312494
7.930;0.516425;-0.351313
7.940;0.534763;-0.385148
7.950;0.554076;-0.414473
7.960;0.574185;-0.439850
7.970;0.595138;-0.461914
7.980;0.616983;-0.481337
7.990;0.639571;-0.498756
8.000;0.662487;-0.514658
8.010;0.685102;-0.529263
8.020;0.706714;-0.542478
8.030;0.726719;-0.553964
8.040;0.744717;-0.563285
