Time[s];COPx[cm];COPy[cm]
0.010;0.323243;0.637506
0.020;0.308790;0.630904
0.030;0.295296;0.624823
0.040;0.283514;0.619425
0.050;0.273849;0.614376
0.060;0.266253;0.608976
0.070;0.260248;0.602485
0.080;0.255082;0.594427
0.090;0.250012;0.584731
0.100;0.244557;0.573681
0.110;0.238630;0.561732
0.120;0.232462;0.549324
0.130;0.226418;0.536733
0.140;0.220834;0.523978
0.150;0.215986;0.510788
0.160;0.212146;0.496610
0.170;0.209645;0.480641
0.180;0.208835;0.461852
0.190;0.209960;0.439021
0.200;0.213001;0.410836
0.210;0.217616;0.376104
0.220;0.223245;0.334041
0.230;0.229335;0.284547
0.240;0.235577;0.228377
0.250;0.242038;0.167112
0.260;0.249115;0.102900
0.270;0.257365;0.038033
0.280;0.267294;-0.025552
0.290;0.279218;-0.086631
0.300;0.293237;-0.144792
0.310;0.309290;-0.200211
0.320;0.327209;-0.253200
0.330;0.346743;-0.303734
0.340;0.367549;-0.351183
0.350;0.389212;-0.394360
0.360;0.411330;-0.431873
0.370;0.433618;-0.462609
0.380;0.455973;-0.486127
0.390;0.478436;-0.502824
0.400;0.501083;-0.513809
0.410;0.523872;-0.520597
0.420;0.546538;-0.524745
0.430;0.568574;-0.527595
0.440;0.589292;-0.530184
0.450;0.607948;-0.533308
0.460;0.623878;-0.537630
0.470;0.636628;-0.543775
0.480;0.646028;-0.552350
0.490;0.652180;-0.563854
0.500;0.655378;-0.578526
0.510;0.655992;-0.596205
0.520;0.654402;-0.616309
0.530;0.651007;-0.637991
0.540;0.646283;-0.660413
0.550;0.640862;-0.683014
0.560;0.635537;-0.705645
0.570;0.631211;-0.728552
0.580;0.628780;-0.752250
0.590;0.629026;-0.777370
0.600;0.632551;-0.804539
0.610;0.639758;-0.834293
0.620;0.650869;-0.867034
0.630;0.665962;-0.903014
0.640;0.684999;-0.942333
0.650;0.707834;-0.984933
0.660;0.734189;-1.030574
0.670;0.763622;-1.078798
0.680;0.795522;-1.128865
0.690;0.829154;-1.179683
0.700;0.863740;-1.229778
0.710;0.898528;-1.277406
0.720;0.932841;-1.320841
0.730;0.966066;-1.358802
0.740;0.997620;-1.390818
0.750;1.026882;-1.417357
0.760;1.053136;-1.439580
0.770;1.075584;-1.458846
0.780;1.093485;-1.476179
0.790;1.106386;-1.491939
0.800;1.114336;-1.505766
0.810;1.117915;-1.516802
0.820;1.118042;-1.524082
0.830;1.115602;-1.526941
0.840;1.111107;-1.525277
0.850;1.104540;-1.519569
0.860;1.095477;-1.510672
0.870;1.083416;-1.499515
0.880;1.068138;-1.486811
0.890;1.049947;-1.472861
0.900;1.029700;-1.457445
0.910;1.008664;-1.439822
0.920;0.988289;-1.418880
0.930;0.969957;-1.393476
0.940;0.954774;-1.362851
0.950;0.943389;-1.326979
0.960;0.935896;-1.286710
0.970;0.931861;-1.243642
0.980;0.930472;-1.199790
0.990;0.930802;-1.157196
1.000;0.932083;-1.117612
1.010;0.933882;-1.082345
1.020;0.936140;-1.052219
1.030;0.939095;-1.027593
1.040;0.943149;-1.008403
1.050;0.948732;-0.994190
1.060;0.956195;-0.984170
1.070;0.965729;-0.977384
1.080;0.977308;-0.972914
1.090;0.990662;-0.970118
1.100;1.005297;-0.968771
1.110;1.020603;-0.969066
1.120;1.036036;-0.971512
1.130;1.051334;-0.976792
1.140;1.066644;-0.985628
1.150;1.082505;-0.998627
1.160;1.099649;-1.016090
1.170;1.118756;-1.037803
1.180;1.140252;-1.062917
1.190;1.164250;-1.090017
1.200;1.190587;-1.117388
1.210;1.218921;-1.143396
1.220;1.248799;-1.166811
1.230;1.279663;-1.186978
1.240;1.310840;-1.203797
1.250;1.341551;-1.217576
1.260;1.370994;-1.228828
1.270;1.398509;-1.238127
1.280;1.423763;-1.246076
1.290;1.446851;-1.253371
1.300;1.468247;-1.260845
1.310;1.488555;-1.269415
1.320;1.508194;-1.279904
1.330;1.527136;-1.292851
1.340;1.544864;-1.308383
1.350;1.560568;-1.326232
1.360;1.573506;-1.345857
1.370;1.583361;-1.366634
1.380;1.590418;-1.388024
1.390;1.595480;-1.409652
1.400;1.599575;-1.431267
1.410;1.603585;-1.452611
1.420;1.607975;-1.473281
1.430;1.612717;-1.492680
1.440;1.617415;-1.510101
1.450;1.621532;-1.524933
1.460;1.624624;-1.536874
1.470;1.626476;-1.546060
1.480;1.627124;-1.553040
1.490;1.626774;-1.558598
1.500;1.625661;-1.563475
1.510;1.623934;-1.568103
1.520;1.621614;-1.572477
1.530;1.618635;-1.576220
1.540;1.614925;-1.578846
1.550;1.610462;-1.580051
1.560;1.605269;-1.579890
1.570;1.599367;-1.578748
1.580;1.592707;-1.577117
1.590;1.585137;-1.575345
1.600;1.576419;-1.573465
1.610;1.566283;-1.571227
1.620;1.554512;-1.568278
1.630;1.541003;-1.564378
1.640;1.525788;-1.559540
1.650;1.508974;-1.554015
1.660;1.490645;-1.548155
1.670;1.470789;-1.542246
1.680;1.449286;-1.536409
1.690;1.425945;-1.530586
1.700;1.400545;-1.524548
1.710;1.372845;-1.517884
1.720;1.342582;-1.509991
1.730;1.309496;-1.500137
1.740;1.273426;-1.487613
1.750;1.234432;-1.471954
1.760;1.192879;-1.453133
1.770;1.149426;-1.431623
1.780;1.104891;-1.408300
1.790;1.060052;-1.384229
1.800;1.015468;-1.360419
1.810;0.971401;-1.337616
1.820;0.927877;-1.316204
1.830;0.884852;-1.296197
1.840;0.842349;-1.277314
1.850;0.800493;-1.259132
1.860;0.759413;-1.241243
1.870;0.719085;-1.223379
1.880;0.679210;-1.205479
1.890;0.639229;-1.187713
1.900;0.598470;-1.170501
1.910;0.556370;-1.154476
1.920;0.512674;-1.140388
1.930;0.467523;-1.128936
1.940;0.421391;-1.120583
1.950;0.374926;-1.115399
1.960;0.328774;-1.112985
1.970;0.283475;-1.112485
1.980;0.239478;-1.112693
1.990;0.197204;-1.112243
2.000;0.157080;-1.109852
2.010;0.119463;-1.104593
2.020;0.084487;-1.096089
2.030;0.051920;-1.084549
2.040;0.021150;-1.070597
2.050;-0.008693;-1.054990
2.060;-0.038499;-1.038364
2.070;-0.068954;-1.021124
2.080;-0.100401;-1.003458
2.090;-0.132831;-0.985383
2.100;-0.165960;-0.966787
2.110;-0.199345;-0.947501
2.120;-0.232489;-0.927422
2.130;-0.264944;-0.906625
2.140;-0.296397;-0.885361
2.150;-0.326723;-0.863920
2.160;-0.355962;-0.842420
2.170;-0.384255;-0.820663
2.180;-0.411784;-0.798156
2.190;-0.438756;-0.774299
2.200;-0.465431;-0.748650
2.210;-0.492142;-0.721149
2.220;-0.519266;-0.692206
2.230;-0.547139;-0.662620
2.240;-0.575964;-0.633377
2.250;-0.605775;-0.605410
2.260;-0.636444;-0.579416
2.270;-0.667712;-0.555773
2.280;-0.699219;-0.534552
2.290;-0.730516;-0.515610
2.300;-0.761095;-0.498724
2.310;-0.790475;-0.483723
2.320;-0.818328;-0.470585
2.330;-0.844604;-0.459453
2.340;-0.869582;-0.450572
2.350;-0.893815;-0.444171
2.360;-0.917975;-0.440329
2.370;-0.942680;-0.438895
2.380;-0.968358;-0.439514
2.390;-0.995221;-0.441762
2.400;-1.023303;-0.445338
2.410;-1.052503;-0.450197
2.420;-1.082568;-0.456546
2.430;-1.113014;-0.464719
2.440;-1.143052;-0.474998
2.450;-1.171587;-0.487482
2.460;-1.197332;-0.502035
2.470;-1.219044;-0.518300
2.480;-1.235818;-0.535778
2.490;-1.247321;-0.553944
2.500;-1.253841;-0.572351
2.510;-1.256105;-0.590700
2.520;-1.254957;-0.608835
2.530;-1.251084;-0.626680
2.540;-1.244903;-0.644146
2.550;-1.236638;-0.661064
2.560;-1.226484;-0.677156
2.570;-1.214781;-0.692037
2.580;-1.202084;-0.705216
2.590;-1.189127;-0.716119
2.600;-1.176678;-0.724138
2.610;-1.165367;-0.728719
2.620;-1.155574;-0.729461
2.630;-1.147449;-0.726216
2.640;-1.141040;-0.719185
2.650;-1.136438;-0.708993
2.660;-1.133835;-0.696666
2.670;-1.133473;-0.683474
2.680;-1.135538;-0.670634
2.690;-1.140095;-0.659014
2.700;-1.147103;-0.648949
2.710;-1.156495;-0.640260
2.720;-1.168246;-0.632435
2.730;-1.182398;-0.624885
2.740;-1.199037;-0.617177
2.750;-1.218232;-0.609154
2.760;-1.239980;-0.600933
2.770;-1.264178;-0.592808
2.780;-1.290637;-0.585151
2.790;-1.319138;-0.578339
2.800;-1.349469;-0.572728
2.810;-1.381410;-0.568623
2.820;-1.414636;-0.566188
2.830;-1.448591;-0.565288
2.840;-1.482401;-0.565350
2.850;-1.514928;-0.565356
2.860;-1.544984;-0.564023
2.870;-1.571638;-0.560133
2.880;-1.594460;-0.552854
2.890;-1.613586;-0.541960
2.900;-1.629562;-0.527895
2.910;-1.643073;-0.511702
2.920;-1.654702;-0.494831
2.930;-1.664789;-0.478837
2.940;-1.673414;-0.464990
2.950;-1.680493;-0.453931
2.960;-1.685979;-0.445482
2.970;-1.690083;-0.438710
2.980;-1.693390;-0.432221
2.990;-1.696781;-0.424586
3.000;-1.701163;-0.414758
3.010;-1.707159;-0.402340
3.020;-1.714895;-0.387647
3.030;-1.724004;-0.371559
3.040;-1.733773;-0.355249
3.050;-1.743376;-0.339898
3.060;-1.752082;-0.326461
3.070;-1.759408;-0.315521
3.080;-1.765156;-0.307224
3.090;-1.769346;-0.301277
3.100;-1.772099;-0.296999
3.110;-1.773559;-0.293439
3.120;-1.773883;-0.289534
3.130;-1.773286;-0.284295
3.140;-1.772026;-0.276971
3.150;-1.770330;-0.267158
3.160;-1.768268;-0.254821
3.170;-1.765660;-0.240227
3.180;-1.762082;-0.223843
3.190;-1.757000;-0.206212
3.200;-1.749991;-0.187822
3.210;-1.740925;-0.168986
3.220;-1.730031;-0.149751
3.230;-1.717777;-0.129931
3.240;-1.704619;-0.109233
3.250;-1.690726;-0.087453
3.260;-1.675813;-0.064634
3.270;-1.659163;-0.041124
3.280;-1.639833;-0.017532
3.290;-1.616980;0.005392
3.300;-1.590169;0.026881
3.310;-1.559528;0.046261
3.320;-1.525730;0.063047
3.330;-1.489814;0.077032
3.340;-1.452962;0.088337
3.350;-1.416297;0.097395
3.360;-1.380738;0.104870
3.370;-1.346916;0.111535
3.380;-1.315127;0.118137
3.390;-1.285312;0.125283
3.400;-1.257064;0.133358
3.410;-1.229657;0.142493
3.420;-1.202135;0.152559
3.430;-1.173467;0.163220
3.440;-1.142760;0.174014
3.450;-1.109475;0.184463
3.460;-1.073569;0.194177
3.470;-1.035527;0.202944
3.480;-0.996266;0.210803
3.490;-0.956971;0.218066
3.500;-0.918875;0.225270
3.510;-0.883045;0.233038
3.520;-0.850217;0.241924
3.530;-0.820714;0.252310
3.540;-0.794462;0.264393
3.550;-0.771082;0.278223
3.560;-0.749982;0.293769
3.570;-0.730458;0.310930
3.580;-0.711789;0.329505
3.590;-0.693374;0.349138
3.600;-0.674911;0.369321
3.610;-0.656541;0.389500
3.620;-0.638886;0.409299
3.630;-0.622907;0.428764
3.640;-0.609605;0.448528
3.650;-0.599688;0.469797
3.660;-0.593315;0.494154
3.670;-0.590011;0.523243
3.680;-0.588771;0.558453
3.690;-0.588320;0.600681
3.700;-0.587459;0.650174
3.710;-0.585378;0.706445
3.720;-0.581828;0.768245
3.730;-0.577079;0.833644
3.740;-0.571683;0.900222
3.750;-0.566154;0.965365
3.760;-0.560709;1.026572
3.770;-0.555210;1.081724
3.780;-0.549305;1.129282
3.790;-0.542659;1.168413
3.800;-0.535128;1.199029
3.810;-0.526820;1.221743
3.820;-0.518039;1.237727
3.830;-0.509158;1.248494
3.840;-0.500449;1.255641
3.850;-0.491935;1.260607
3.860;-0.483337;1.264490
3.870;-0.474188;1.267954
3.880;-0.464077;1.271174
3.890;-0.452893;1.273840
3.900;-0.440955;1.275244
3.910;-0.428950;1.274488
3.920;-0.417735;1.270761
3.930;-0.408083;1.263623
3.940;-0.400474;1.253183
3.950;-0.395006;1.240110
3.960;-0.391421;1.225440
3.970;-0.389227;1.210255
3.980;-0.387852;1.195361
3.990;-0.386761;1.181091
4.000;-0.385527;1.167267
4.010;-0.383866;1.153301
4.020;-0.381638;1.138387
4.030;-0.378832;1.121721
4.040;-0.375512;1.102735
4.050;-0.371718;1.081275
4.060;-0.367348;1.057640
4.070;-0.362069;1.032460
4.080;-0.355336;1.006424
4.090;-0.346529;0.980022
4.100;-0.335169;0.953439
4.110;-0.321111;0.926681
4.120;-0.304599;0.899848
4.130;-0.286174;0.873373
4.140;-0.266463;0.848080
4.150;-0.245954;0.825021
4.160;-0.224841;0.805183
4.170;-0.202991;0.789180
4.180;-0.180063;0.777047
4.190;-0.155713;0.768209
4.200;-0.129794;0.761625
4.210;-0.102454;0.756041
4.220;-0.074074;0.750273
4.230;-0.045105;0.743471
4.240;-0.015902;0.735283
4.250;0.013353;0.725888
4.260;0.042604;0.715874
4.270;0.071807;0.706015
4.280;0.100820;0.697020
4.290;0.129365;0.689340
4.300;0.157101;0.683095
4.310;0.183741;0.678134
4.320;0.209174;0.674204
4.330;0.233532;0.671113
4.340;0.257209;0.668828
4.350;0.280835;0.667483
4.360;0.305212;0.667296
4.370;0.331208;0.668468
4.380;0.359592;0.671068
4.390;0.390858;0.674964
4.400;0.425081;0.679807
4.410;0.461914;0.685090
4.420;0.500710;0.690267
4.430;0.540741;0.694878
4.440;0.581398;0.698609
4.450;0.622308;0.701262
4.460;0.663322;0.702694
4.470;0.704409;0.702760
4.480;0.745505;0.701302
4.490;0.786375;0.698150
4.500;0.826538;0.693115
4.510;0.865277;0.685971
4.520;0.901746;0.676451
4.530;0.935135;0.664289
4.540;0.964872;0.649321
4.550;0.990774;0.631620
4.560;1.013119;0.611599
4.570;1.032594;0.589963
4.580;1.050145;0.567498
4.590;1.066720;0.544721
4.600;1.082977;0.521557
4.610;1.099058;0.497255
4.620;1.114550;0.470647
4.630;1.128673;0.440695
4.640;1.140619;0.407048
4.650;1.149867;0.370335
4.660;1.156331;0.332053
4.670;1.160317;0.294099
4.680;1.162351;0.258135
4.690;1.162979;0.225044
4.700;1.162564;0.194676
4.710;1.161102;0.165995
4.720;1.158106;0.137514
4.730;1.152618;0.107815
4.740;1.143371;0.075947
4.750;1.129076;0.041607
4.760;1.108749;0.005103
4.770;1.081977;-0.032807
4.780;1.049067;-0.071110
4.790;1.011074;-0.108738
4.800;0.969696;-0.144753
4.810;0.927036;-0.178554
4.820;0.885230;-0.210019
4.830;0.846005;-0.239505
4.840;0.810294;-0.267649
4.850;0.778040;-0.295043
4.860;0.748280;-0.321957
4.870;0.719486;-0.348235
4.880;0.690024;-0.373403
4.890;0.658608;-0.396924
4.900;0.624634;-0.418440
4.910;0.588348;-0.437898
4.920;0.550821;-0.455502
4.930;0.513736;-0.471577
4.940;0.479014;-0.486458
4.950;0.448375;-0.500465
4.960;0.422949;-0.513933
4.970;0.403051;-0.527231
4.980;0.388174;-0.540720
4.990;0.377203;-0.554661
5.000;0.368772;-0.569114
5.010;0.361635;-0.583895
5.020;0.354952;-0.598634
5.030;0.348393;-0.612917
5.040;0.342079;-0.626450
5.050;0.336423;-0.639145
5.060;0.331902;-0.651102
5.070;0.328850;-0.662517
5.080;0.327311;-0.673591
5.090;0.327027;-0.684487
5.100;0.327538;-0.695299
5.110;0.328349;-0.706024
5.120;0.329080;-0.716510
5.130;0.329543;-0.726443
5.140;0.329761;-0.735397
5.150;0.329966;-0.742964
5.160;0.330599;-0.748888
5.170;0.332285;-0.753143
5.180;0.335748;-0.755896
5.190;0.341646;-0.757426
5.200;0.350386;-0.758035
5.210;0.362007;-0.758035
5.220;0.376207;-0.757759
5.230;0.392526;-0.757546
5.240;0.410576;-0.757670
5.250;0.430212;-0.758285
5.260;0.451544;-0.759425
5.270;0.474826;-0.761056
5.280;0.500277;-0.763117
5.290;0.527977;-0.765520
5.300;0.557843;-0.768128
5.310;0.589677;-0.770756
5.320;0.623212;-0.773210
5.330;0.658109;-0.775313
5.340;0.693931;-0.776898
5.350;0.730121;-0.777793
5.360;0.766019;-0.777809
5.370;0.800913;-0.776736
5.380;0.834115;-0.774375
5.390;0.865049;-0.770598
5.400;0.893329;-0.765438
5.410;0.918782;-0.759164
5.420;0.941408;-0.752295
5.430;0.961289;-0.745550
5.440;0.978531;-0.739750
5.450;0.993254;-0.735716
5.460;1.005635;-0.734161
5.470;1.015937;-0.735596
5.480;1.024524;-0.740229
5.490;1.031829;-0.747860
5.500;1.038289;-0.757840
5.510;1.044271;-0.769147
5.520;1.050019;-0.780602
5.530;1.055656;-0.791183
5.540;1.061248;-0.800294
5.550;1.066895;-0.807893
5.560;1.072797;-0.814423
5.570;1.079255;-0.820588
5.580;1.086595;-0.827073
5.590;1.095055;-0.834340
5.600;1.104664;-0.842600
5.610;1.115185;-0.851921
5.620;1.126131;-0.862345
5.630;1.136874;-0.873886
5.640;1.146800;-0.886402
5.650;1.155464;-0.899461
5.660;1.162720;-0.912347
5.670;1.168756;-0.924209
5.680;1.174034;-0.934298
5.690;1.179093;-0.942181
5.700;1.184293;-0.947826
5.710;1.189582;-0.951555
5.720;1.194453;-0.953866
5.730;1.198110;-0.955201
5.740;1.199782;-0.955726
5.750;1.199013;-0.955189
5.760;1.195800;-0.952928
5.770;1.190562;-0.948052
5.780;1.183989;-0.939750
5.790;1.176828;-0.927614
5.800;1.169678;-0.911814
5.810;1.162815;-0.893050
5.820;1.156115;-0.872299
5.830;1.149095;-0.850499
5.840;1.141069;-0.828307
5.850;1.131373;-0.805994
5.860;1.119589;-0.783482
5.870;1.105678;-0.760493
5.880;1.089967;-0.736734
5.890;1.073000;-0.712054
5.900;1.055313;-0.686514
5.910;1.037255;-0.660370
5.920;1.018877;-0.633998
5.930;0.999932;-0.607777
5.940;0.979956;-0.581982
5.950;0.958419;-0.556673
5.960;0.934909;-0.531685
5.970;0.909306;-0.506741
5.980;0.881887;-0.481724
5.990;0.853334;-0.456964
6.000;0.824627;-0.433389
6.010;0.796876;-0.412377
6.020;0.771146;-0.395346
6.030;0.748317;-0.383269
6.040;0.728997;-0.376379
6.050;0.713481;-0.374211
6.060;0.701742;-0.375910
6.070;0.693490;-0.380596
6.080;0.688282;-0.387597
6.090;0.685685;-0.396465
6.100;0.685400;-0.406883
6.110;0.687313;-0.418584
6.120;0.691477;-0.431363
6.130;0.698022;-0.445162
6.140;0.707064;-0.460148
6.150;0.718606;-0.476708
6.160;0.732484;-0.495333
6.170;0.748373;-0.516421
6.180;0.765816;-0.540083
6.190;0.784279;-0.566023
6.200;0.803171;-0.593539
6.210;0.821843;-0.621619
6.220;0.839563;-0.649092
6.230;0.855508;-0.674797
6.240;0.868815;-0.697711
6.250;0.878713;-0.717063
6.260;0.884696;-0.732428
6.270;0.886652;-0.743786
6.280;0.884869;-0.751544
6.290;0.879915;-0.756467
6.300;0.872501;-0.759532
6.310;0.863379;-0.761698
6.320;0.853329;-0.763678
6.330;0.843137;-0.765756
6.340;0.833535;-0.767754
6.350;0.825099;-0.769145
6.360;0.818158;-0.769288
6.370;0.812771;-0.767666
6.380;0.808798;-0.764021
6.390;0.806018;-0.758371
6.400;0.804241;-0.750941
6.410;0.803367;-0.742074
6.420;0.803386;-0.732135
6.430;0.804334;-0.721444
6.440;0.806223;-0.710258
6.450;0.808993;-0.698826
6.460;0.812494;-0.687491
6.470;0.816493;-0.676755
6.480;0.820684;-0.667228
6.490;0.824686;-0.659457
6.500;0.828066;-0.653735
6.510;0.830394;-0.650004
6.520;0.831326;-0.647914
6.530;0.830677;-0.647004
6.540;0.828426;-0.646872
6.550;0.824651;-0.647271
6.560;0.819413;-0.648115
6.570;0.812671;-0.649436
6.580;0.804297;-0.651328
6.590;0.794179;-0.653893
6.600;0.782367;-0.657203
6.610;0.769195;-0.661247
6.620;0.755303;-0.665871
6.630;0.741546;-0.670741
6.640;0.728823;-0.675356
6.650;0.717900;-0.679155
6.660;0.709266;-0.681665
6.670;0.703079;-0.682658
6.680;0.699220;-0.682231
6.690;0.697418;-0.680754
6.700;0.697412;-0.678714
6.710;0.699054;-0.676548
6.720;0.702335;-0.674531
6.730;0.707343;-0.672775
6.740;0.714224;-0.671275
6.750;0.723165;-0.669955
6.760;0.734362;-0.668679
6.770;0.747949;-0.667240
6.780;0.763889;-0.665375
6.790;0.781886;-0.662813
6.800;0.801400;-0.659309
6.810;0.821774;-0.654657
6.820;0.842386;-0.648677
6.830;0.862758;-0.641208
6.840;0.882532;-0.632113
6.850;0.901385;-0.621302
6.860;0.918964;-0.608768
6.870;0.934902;-0.594600
6.880;0.948904;-0.578963
6.890;0.960843;-0.562023
6.900;0.970802;-0.543850
6.910;0.979040;-0.524326
6.920;0.985888;-0.503112
6.930;0.991626;-0.479697
6.940;0.996396;-0.453526
6.950;1.000211;-0.424186
6.960;1.003038;-0.391622
6.970;1.004918;-0.356319
6.980;1.006029;-0.319372
6.990;1.006682;-0.282374
7.000;1.007229;-0.247128
7.010;1.007917;-0.215262
7.020;1.008723;-0.187855
7.030;1.009248;-0.165168
7.040;1.008745;-0.146588
7.050;1.006288;-0.130835
7.060;1.001022;-0.116384
7.070;0.992387;-0.101940
7.080;0.980239;-0.086758
7.090;0.964857;-0.070702
7.100;0.946863;-0.054053
7.110;0.927105;-0.037230
7.120;0.906501;-0.020543
7.130;0.885858;-0.004104
7.140;0.865692;0.012128
7.150;0.846106;0.028199
7.160;0.826776;0.044003
7.170;0.807046;0.059212
7.180;0.786123;0.073326
7.190;0.763309;0.085817
7.200;0.738263;0.096257
7.210;0.711189;0.104353
7.220;0.682907;0.109897
7.230;0.654708;0.112692
7.240;0.628023;0.112510
7.250;0.604016;0.109134
7.260;0.583278;0.102443
7.270;0.565753;0.092514
7.280;0.550911;0.079677
7.290;0.538035;0.064528
7.300;0.526465;0.047867
7.310;0.515699;0.030567
7.320;0.505328;0.013384
7.330;0.494839;-0.003230
7.340;0.483426;-0.019254
7.350;0.469876;-0.035056
7.360;0.452656;-0.051172
7.370;0.430209;-0.067903
7.380;0.401433;-0.084925
7.390;0.366220;-0.101109
7.400;0.325821;-0.114701
7.410;0.282807;-0.123861
7.420;0.240528;-0.127349
7.430;0.202199;-0.125048
7.440;0.169963;-0.118083
7.450;0.144326;-0.108488
7.460;0.124199;-0.098576
7.470;0.107501;-0.090274
7.480;0.092028;-0.084643
7.490;0.076224;-0.081698
7.500;0.059594;-0.080505
7.510;0.042674;-0.079527
7.520;0.026617;-0.077112
7.530;0.012612;-0.071973
7.540;0.001387;-0.063533
7.550;-0.007030;-0.052005
7.560;-0.013231;-0.038213
7.570;-0.018095;-0.023231
7.580;-0.022362;-0.008023
7.590;-0.026292;0.006770
7.600;-0.029547;0.020852
7.610;-0.031345;0.034172
7.620;-0.030806;0.046816
7.630;-0.027326;0.058916
7.640;-0.020829;0.070547
7.650;-0.011816;0.081632
7.660;-0.001211;0.091887
7.670;0.009891;0.100848
7.680;0.020500;0.107975
7.690;0.029943;0.112763
7.700;0.037961;0.114836
7.710;0.044675;0.114020
7.720;0.050465;0.110438
7.730;0.055844;0.104559
7.740;0.061367;0.097168
7.750;0.067563;0.089144
7.760;0.074853;0.081128
7.770;0.083438;0.073181
7.780;0.093213;0.064642
7.790;0.103771;0.054260
7.800;0.114531;0.040562
7.810;0.124948;0.022326
7.820;0.134697;-0.001012
7.830;0.143736;-0.029152
7.840;0.152245;-0.060973
7.850;0.160470;-0.094794
7.860;0.168570;-0.128742
7.870;0.176505;-0.161120
7.880;0.183988;-0.190664
7.890;0.190517;-0.216715
7.900;0.195442;-0.239264
7.910;0.198081;-0.258884
7.920;0.197842;-0.276500
7.930;0.194304;-0.293047
7.940;0.187252;-0.309148
7.950;0.176645;-0.324946
7.960;0.162563;-0.340155
7.970;0.145185;-0.354288
7.980;0.124829;-0.366908
