Time[s];COPx[cm];COPy[cm]
0.010;-1.753359;-0.385372
0.020;-1.758318;-0.532029
0.030;-1.758798;-0.669757
0.040;-1.751194;-0.790848
0.050;-1.733349;-0.890701
0.060;-1.704714;-0.968274
0.070;-1.666127;-1.025714
0.080;-1.619399;-1.067386
0.090;-1.566892;-1.098667
0.100;-1.511171;-1.124810
0.110;-1.454729;-1.150106
0.120;-1.399723;-1.177436
0.130;-1.347733;-1.208211
0.140;-1.299625;-1.242589
0.150;-1.255554;-1.279758
0.160;-1.215153;-1.318165
0.170;-1.177801;-1.355661
0.180;-1.142888;-1.389665
0.190;-1.109998;-1.417410
0.200;-1.078974;-1.436286
0.210;-1.049942;-1.444164
0.220;-1.023318;-1.439582
0.230;-0.999795;-1.421730
0.240;-0.980280;-1.390275
0.250;-0.965759;-1.345139
0.260;-0.957124;-1.286352
0.270;-0.955068;-1.213996
0.280;-0.960056;-1.128215
0.290;-0.972393;-1.029280
0.300;-0.992299;-0.917700
0.310;-1.019966;-0.794433
0.320;-1.055515;-0.661148
0.330;-1.098837;-0.520412
0.340;-1.149341;-0.375669
0.350;-1.205732;-0.230946
0.360;-1.265934;-0.090378
0.370;-1.327211;0.042290
0.380;-1.386440;0.164086
0.390;-1.440450;0.272985
0.400;-1.486325;0.367932
0.410;-1.521640;0.448736
0.420;-1.544620;0.515935
0.430;-1.554266;0.570613
0.440;-1.550439;0.614202
0.450;-1.533862;0.648244
0.460;-1.505970;0.674171
0.470;-1.468582;0.693155
0.480;-1.423458;0.706064
0.490;-1.371904;0.713477
0.500;-1.314579;0.715755
0.510;-1.251622;0.713120
0.520;-1.183034;0.705833
0.530;-1.109142;0.694465
0.540;-1.030933;0.680208
0.550;-0.950119;0.665047
0.560;-0.868953;0.651627
0.570;-0.789889;0.642803
0.580;-0.715275;0.640983
0.590;-0.647179;0.647490
0.600;-0.587364;0.662125
0.610;-0.537318;0.683160
0.620;-0.498237;0.707781
0.630;-0.470936;0.732906
0.640;-0.455725;0.756040
0.650;-0.452326;0.775834
0.660;-0.459835;0.792116
0.670;-0.476715;0.805432
0.680;-0.500843;0.816372
0.690;-0.529634;0.825059
0.700;-0.560277;0.831064
0.710;-0.590072;0.833808
0.720;-0.616793;0.833198
0.730;-0.638937;0.830128
0.740;-0.655781;0.826559
0.750;-0.667227;0.825134
0.760;-0.673519;0.828548
0.770;-0.674961;0.838937
0.780;-0.671726;0.857498
0.790;-0.663807;0.884363
0.800;-0.651083;0.918672
0.810;-0.633431;0.958752
0.820;-0.610823;1.002328
0.830;-0.583351;1.046772
0.840;-0.551213;1.089419
0.850;-0.514719;1.127951
0.860;-0.474338;1.160772
0.870;-0.430821;1.187238
0.880;-0.385337;1.207569
0.890;-0.339550;1.222442
0.900;-0.295599;1.232387
0.910;-0.255974;1.237300
0.920;-0.223312;1.236295
0.930;-0.200144;1.227986
0.940;-0.188553;1.211080
0.950;-0.189799;1.185029
0.960;-0.203959;1.150499
0.970;-0.229714;1.109466
0.980;-0.264428;1.064870
0.990;-0.304545;1.019968
1.000;-0.346272;0.977597
1.010;-0.386346;0.939616
1.020;-0.422642;0.906699
1.030;-0.454440;0.878510
1.040;-0.482281;0.854113
1.050;-0.507473;0.832408
1.060;-0.531414;0.812413
1.070;-0.554936;0.793349
1.080;-0.577862;0.774588
1.090;-0.598904;0.755602
1.100;-0.615946;0.735993
1.110;-0.626635;0.715570
1.120;-0.629110;0.694368
1.130;-0.622670;0.672521
1.140;-0.608154;0.650029
1.150;-0.587936;0.626552
1.160;-0.565506;0.601374
1.170;-0.544766;0.573611
1.180;-0.529269;0.542596
1.190;-0.521584;0.508225
1.200;-0.522980;0.471070
1.210;-0.533465;0.432118
1.220;-0.552169;0.392214
1.230;-0.578002;0.351465
1.240;-0.610448;0.308882
1.250;-0.650293;0.262499
1.260;-0.700038;0.210000
1.270;-0.763666;0.149692
1.280;-0.845666;0.081495
1.290;-0.949456;0.007519
1.300;-1.075701;-0.068048
1.310;-1.221161;-0.139842
1.320;-1.378576;-0.202766
1.330;-1.537800;-0.253446
1.340;-1.687969;-0.291129
1.350;-1.820012;-0.317589
1.360;-1.928654;-0.336156
1.370;-2.013157;-0.350388
1.380;-2.076688;-0.363038
1.390;-2.124733;-0.375690
1.400;-2.163299;-0.389000
1.410;-2.197527;-0.403243
1.420;-2.230961;-0.418817
1.430;-2.265446;-0.436480
1.440;-2.301416;-0.457239
1.450;-2.338355;-0.481997
1.460;-2.375268;-0.511110
1.470;-2.411058;-0.544039
1.480;-2.444779;-0.579228
1.490;-2.475729;-0.614225
1.500;-2.503458;-0.646023
1.510;-2.527783;-0.671537
1.520;-2.548899;-0.688159
1.530;-2.567600;-0.694301
1.540;-2.585489;-0.689808
1.550;-2.604963;-0.676060
1.560;-2.628805;-0.655663
1.570;-2.659377;-0.631768
1.580;-2.697652;-0.607300
1.590;-2.742508;-0.584344
1.600;-2.790666;-0.563871
1.610;-2.837375;-0.545755
1.620;-2.877573;-0.528914
1.630;-2.907003;-0.511459
1.640;-2.922854;-0.490805
1.650;-2.923868;-0.463858
1.660;-2.910069;-0.427377
1.670;-2.882434;-0.378514
1.680;-2.842602;-0.315410
1.690;-2.792630;-0.237681
1.700;-2.734703;-0.146675
1.710;-2.670822;-0.045474
1.720;-2.602540;0.061383
1.730;-2.530875;0.168426
1.740;-2.456462;0.270038
1.750;-2.379864;0.361382
1.760;-2.301918;0.439275
1.770;-2.223925;0.502755
1.780;-2.147586;0.553116
1.790;-2.074682;0.593388
1.800;-2.006637;0.627434
1.810;-1.944158;0.658929
1.820;-1.887104;0.690479
1.830;-1.834664;0.723040
1.840;-1.785738;0.755738
1.850;-1.739347;0.786113
1.860;-1.694875;0.810764
1.870;-1.652066;0.826228
1.880;-1.610836;0.829888
1.890;-1.571079;0.820688
1.900;-1.532562;0.799464
1.910;-1.494961;0.768817
1.920;-1.457981;0.732563
1.930;-1.421484;0.694904
1.940;-1.385575;0.659595
1.950;-1.350616;0.629301
1.960;-1.317172;0.605284
1.970;-1.285898;0.587415
1.980;-1.257400;0.574455
1.990;-1.232045;0.564492
2.000;-1.209823;0.555392
2.010;-1.190340;0.545155
2.020;-1.173043;0.532089
2.030;-1.157671;0.514816
2.040;-1.144724;0.492174
2.050;-1.135728;0.463105
2.060;-1.133131;0.426644
2.070;-1.139814;0.382004
2.080;-1.158337;0.328751
2.090;-1.190121;0.266965
2.100;-1.234810;0.197387
2.110;-1.290038;0.121520
2.120;-1.351735;0.041706
2.130;-1.414918;-0.038893
2.140;-1.474727;-0.116493
2.150;-1.527360;-0.187129
2.160;-1.570552;-0.247260
2.170;-1.603508;-0.294387
2.180;-1.626456;-0.327471
2.190;-1.640086;-0.347067
2.200;-1.645148;-0.355156
2.210;-1.642253;-0.354776
2.220;-1.631890;-0.349534
2.230;-1.614577;-0.343104
2.240;-1.591094;-0.338784
2.250;-1.562660;-0.339130
2.260;-1.530974;-0.345718
2.270;-1.498031;-0.359077
2.280;-1.465768;-0.378817
2.290;-1.435678;-0.403876
2.300;-1.408575;-0.432783
2.310;-1.384688;-0.463843
2.320;-1.364026;-0.495225
2.330;-1.346838;-0.524989
2.340;-1.333889;-0.551125
2.350;-1.326398;-0.571692
2.360;-1.325672;-0.585076
2.370;-1.332615;-0.590307
2.380;-1.347329;-0.587282
2.390;-1.368972;-0.576707
2.400;-1.395900;-0.559722
2.410;-1.426039;-0.537362
2.420;-1.457371;-0.510143
2.430;-1.488395;-0.477951
2.440;-1.518399;-0.440208
2.450;-1.547454;-0.396167
2.460;-1.576114;-0.345181
2.470;-1.604952;-0.286945
2.480;-1.634098;-0.221725
2.490;-1.662954;-0.150606
2.500;-1.690170;-0.075645
2.510;-1.713896;0.000206
2.520;-1.732224;0.073511
2.530;-1.743699;0.141051
2.540;-1.747713;0.200561
2.550;-1.744608;0.251201
2.560;-1.735463;0.293514
2.570;-1.721663;0.328884
2.580;-1.704438;0.358729
2.590;-1.684549;0.383825
2.600;-1.662195;0.404082
2.610;-1.637142;0.418845
2.620;-1.608973;0.427523
2.630;-1.577386;0.430183
2.640;-1.542481;0.427806
2.650;-1.504975;0.422133
2.660;-1.466274;0.415202
2.670;-1.428355;0.408835
2.680;-1.393438;0.404258
2.690;-1.363555;0.401943
2.700;-1.340131;0.401674
2.710;-1.323728;0.402776
2.720;-1.314011;0.404442
2.730;-1.309925;0.406056
2.740;-1.309986;0.407396
2.750;-1.312572;0.408650
2.760;-1.316157;0.410246
2.770;-1.319465;0.412559
2.780;-1.321574;0.415610
2.790;-1.321958;0.418870
2.800;-1.320515;0.421263
2.810;-1.317585;0.421345
2.820;-1.313930;0.417595
2.830;-1.310597;0.408666
2.840;-1.308613;0.393539
2.850;-1.308565;0.371557
2.860;-1.310258;0.342417
2.870;-1.312646;0.306179
2.880;-1.314172;0.263318
2.890;-1.313396;0.214774
2.900;-1.309660;0.161930
2.910;-1.303464;0.106496
2.920;-1.296382;0.050348
2.930;-1.290576;-0.004589
2.940;-1.288113;-0.056347
2.950;-1.290336;-0.102907
2.960;-1.297479;-0.142285
2.970;-1.308617;-0.172777
2.980;-1.321927;-0.193284
2.990;-1.335187;-0.203536
3.000;-1.346362;-0.204068
3.010;-1.354100;-0.195959
3.020;-1.358025;-0.180491
3.030;-1.358759;-0.158898
3.040;-1.357669;-0.132338
3.050;-1.356419;-0.102060
3.060;-1.356458;-0.069633
3.070;-1.358624;-0.037076
3.080;-1.362953;-0.006753
3.090;-1.368714;0.018958
3.100;-1.374586;0.038125
3.110;-1.378928;0.049742
3.120;-1.380121;0.054059
3.130;-1.376936;0.052659
3.140;-1.368845;0.048195
3.150;-1.356168;0.043807
3.160;-1.339977;0.042389
3.170;-1.321817;0.045948
3.180;-1.303343;0.055288
3.190;-1.286035;0.070068
3.200;-1.271037;0.089185
3.210;-1.259141;0.111281
3.220;-1.250827;0.135190
3.230;-1.246293;0.160205
3.240;-1.245417;0.186101
3.250;-1.247675;0.212964
3.260;-1.252129;0.240912
3.270;-1.257556;0.269861
3.280;-1.262743;0.299447
3.290;-1.266845;0.329151
3.300;-1.269690;0.358535
3.310;-1.271857;0.387426
3.320;-1.274497;0.415947
3.330;-1.278922;0.444379
3.340;-1.286107;0.472981
3.350;-1.296281;0.501831
3.360;-1.308757;0.530750
3.370;-1.322068;0.559343
3.380;-1.334373;0.587151
3.390;-1.343951;0.613905
3.400;-1.349596;0.639777
3.410;-1.350732;0.665528
3.420;-1.347242;0.692474
3.430;-1.339136;0.722270
3.440;-1.326281;0.756561
3.450;-1.308341;0.796570
3.460;-1.284953;0.842691
3.470;-1.256020;0.894213
3.480;-1.221954;0.949326
3.490;-1.183721;1.005458
3.500;-1.142672;1.059855
3.510;-1.100245;1.110206
3.520;-1.057703;1.155101
3.530;-1.016026;1.194209
3.540;-0.975972;1.228161
3.550;-0.938237;1.258223
3.560;-0.903570;1.285913
3.570;-0.872738;1.312694
3.580;-0.846342;1.339849
3.590;-0.824581;1.368520
3.600;-0.807125;1.399841
3.610;-0.793161;1.435030
3.620;-0.781629;1.475271
3.630;-0.771526;1.521351
3.640;-0.762146;1.573144
3.650;-0.753144;1.629236
3.660;-0.744420;1.686954
3.670;-0.735863;1.742873
3.680;-0.727139;1.793568
3.690;-0.717639;1.836257
3.700;-0.706638;1.869108
3.710;-0.693558;1.891196
3.720;-0.678140;1.902317
3.730;-0.660399;1.902799
3.740;-0.640407;1.893365
3.750;-0.618065;1.875015
3.760;-0.593049;1.848835
3.770;-0.564981;1.815724
3.780;-0.533735;1.776108
3.790;-0.499706;1.729751
3.800;-0.463907;1.675789
3.810;-0.427840;1.613028
3.820;-0.393204;1.540451
3.830;-0.361551;1.457778
3.840;-0.334021;1.365886
3.850;-0.311249;1.266895
3.860;-0.293426;1.163857
3.870;-0.280469;1.060123
3.880;-0.272171;0.958637
3.890;-0.268266;0.861389
3.900;-0.268352;0.769209
3.910;-0.271742;0.681910
3.920;-0.277355;0.598649
3.930;-0.283761;0.518343
3.940;-0.289429;0.439987
3.950;-0.293087;0.362858
3.960;-0.294017;0.286611
3.970;-0.292150;0.211323
3.980;-0.287886;0.137495
3.990;-0.281746;0.066004
4.000;-0.274024;-0.001980
4.010;-0.264605;-0.065095
4.020;-0.253043;-0.121901
4.030;-0.238829;-0.171005
4.040;-0.221725;-0.211263
4.050;-0.201982;-0.242056
4.060;-0.180393;-0.263535
4.070;-0.158196;-0.276701
4.080;-0.136938;-0.283240
4.090;-0.118358;-0.285167
4.100;-0.104333;-0.284426
4.110;-0.096875;-0.282624
4.120;-0.098166;-0.280959
4.130;-0.110557;-0.280296
4.140;-0.136442;-0.281205
4.150;-0.177963;-0.283857
4.160;-0.236574;-0.287732
4.170;-0.312577;-0.291259
4.180;-0.404837;-0.291661
4.190;-0.510815;-0.285216
4.200;-0.626928;-0.268071
4.210;-0.749047;-0.237401
4.220;-0.872900;-0.192548
4.230;-0.994227;-0.135673
4.240;-1.108745;-0.071544
4.250;-1.212151;-0.006415
4.260;-1.300363;0.053687
4.270;-1.370056;0.104592
4.280;-1.419283;0.144876
4.290;-1.447877;0.175706
4.300;-1.457432;0.199810
4.310;-1.450903;0.220135
4.320;-1.432028;0.238771
4.330;-1.404784;0.256449
4.340;-1.373005;0.272639
4.350;-1.340113;0.286010
4.360;-1.308882;0.294965
4.370;-1.281195;0.298052
4.380;-1.257860;0.294174
4.390;-1.238614;0.282674
4.400;-1.222405;0.263406
4.410;-1.207896;0.236845
4.420;-1.194049;0.204215
4.430;-1.180612;0.167459
4.440;-1.168390;0.128893
4.450;-1.159271;0.090556
4.460;-1.156000;0.053464
4.470;-1.161714;0.017155
4.480;-1.179296;-0.020116
4.490;-1.210647;-0.060518
4.500;-1.256081;-0.105455
4.510;-1.314095;-0.154624
4.520;-1.381646;-0.205785
4.530;-1.454917;-0.255350
4.540;-1.530209;-0.299519
4.550;-1.604557;-0.335464
4.560;-1.675773;-0.362049
4.570;-1.741984;-0.379889
4.580;-1.801014;-0.390799
4.590;-1.850032;-0.396978
4.600;-1.885698;-0.400292
4.610;-1.904768;-0.401906
4.620;-1.904912;-0.402301
4.630;-1.885428;-0.401546
4.640;-1.847604;-0.399669
4.650;-1.794652;-0.397012
4.660;-1.731246;-0.394510
4.670;-1.662774;-0.393808
4.680;-1.594457;-0.397120
4.690;-1.530534;-0.406777
4.700;-1.473682;-0.424497
4.710;-1.424825;-0.450653
4.720;-1.383346;-0.483846
4.730;-1.347549;-0.521065
4.740;-1.315204;-0.558410
4.750;-1.283962;-0.592063
4.760;-1.251595;-0.619058
4.770;-1.216099;-0.637545
4.780;-1.175784;-0.646596
4.790;-1.129396;-0.645828
4.800;-1.076265;-0.635132
4.810;-1.016374;-0.614640
4.820;-0.950288;-0.584862
4.830;-0.878946;-0.546856
4.840;-0.803426;-0.502293
4.850;-0.724781;-0.453430
4.860;-0.644011;-0.403014
4.870;-0.562102;-0.354115
4.880;-0.480036;-0.309829
4.890;-0.398751;-0.272831
4.900;-0.319052;-0.244849
4.910;-0.241562;-0.226233
4.920;-0.166721;-0.215854
4.930;-0.094853;-0.211467
4.940;-0.026227;-0.210478
4.950;0.038909;-0.210865
4.960;0.100348;-0.211856
4.970;0.157963;-0.214012
4.980;0.211742;-0.218639
4.990;0.261813;-0.226779
5.000;0.308465;-0.238302
5.010;0.352148;-0.251599
5.020;0.393445;-0.264028
5.030;0.433011;-0.272893
5.040;0.471509;-0.276431
5.050;0.509516;-0.274362
5.060;0.547435;-0.267822
5.070;0.585445;-0.258766
5.080;0.623563;-0.249156
5.090;0.661795;-0.240280
5.100;0.700304;-0.232413
5.110;0.739454;-0.224886
5.120;0.779704;-0.216462
5.130;0.821395;-0.205863
5.140;0.864581;-0.192256
5.150;0.908961;-0.175560
5.160;0.953930;-0.156481
5.170;0.998666;-0.136278
5.180;1.042185;-0.116286
5.190;1.083335;-0.097341
5.200;1.120761;-0.079346
5.210;1.152886;-0.061189
5.220;1.177953;-0.041104
5.230;1.194190;-0.017306
5.240;1.200059;0.011369
5.250;1.194587;0.045127
5.260;1.177615;0.083282
5.270;1.149869;0.124636
5.280;1.112727;0.167958
5.290;1.067732;0.212365
5.300;1.016024;0.257501
5.310;0.957921;0.303526
5.320;0.892866;0.350950
5.330;0.819789;0.400324
5.340;0.737788;0.451827
5.350;0.646913;0.504832
5.360;0.548763;0.557627
5.370;0.446673;0.607494
5.380;0.345343;0.651276
5.390;0.249955;0.686322
5.400;0.165024;0.711465
5.410;0.093380;0.727589
5.420;0.035646;0.737501
5.430;-0.009626;0.745168
5.440;-0.045260;0.754672
5.450;-0.074500;0.769265
5.460;-0.100163;0.790803
5.470;-0.124120;0.819604
5.480;-0.147174;0.854635
5.490;-0.169288;0.893917
5.500;-0.190014;0.935020
5.510;-0.209002;0.975591
5.520;-0.226450;1.013799
5.530;-0.243403;1.048594
5.540;-0.261857;1.079704
5.550;-0.284642;1.107385
5.560;-0.315128;1.132024
5.570;-0.356789;1.153705
5.580;-0.412687;1.171891
5.590;-0.484944;1.185290
5.600;-0.574289;1.191978
5.610;-0.679812;1.189765
5.620;-0.799052;1.176737
5.630;-0.928464;1.151774
5.640;-1.064118;1.114889
5.650;-1.202342;1.067266
5.660;-1.340012;1.011031
5.670;-1.474354;0.948881
5.680;-1.602426;0.883667
5.690;-1.720664;0.818011
5.700;-1.824870;0.753954
5.710;-1.910819;0.692685
5.720;-1.975317;0.634367
5.730;-2.017264;0.578117
5.740;-2.038198;0.522147
5.750;-2.042022;0.464095
5.760;-2.033992;0.401559
5.770;-2.019366;0.332735
5.780;-2.002241;0.256991
5.790;-1.984938;0.175134
5.800;-1.968073;0.089256
5.810;-1.951172;0.002173
5.820;-1.933583;-0.083322
5.830;-1.915353;-0.165116
5.840;-1.897816;-0.242087
5.850;-1.883701;-0.314010
5.860;-1.876798;-0.381147
5.870;-1.881298;-0.443787
5.880;-1.901002;-0.501949
5.890;-1.938532;-0.555329
5.900;-1.994638;-0.603461
5.910;-2.067786;-0.645957
5.920;-2.154199;-0.682735
5.930;-2.248433;-0.714147
5.940;-2.344327;-0.741004
5.950;-2.435984;-0.764445
5.960;-2.518459;-0.785656
5.970;-2.588085;-0.805491
5.980;-2.642519;-0.824084
5.990;-2.680652;-0.840647
6.000;-2.702461;-0.853557
6.010;-2.708775;-0.860754
6.020;-2.700981;-0.860247
6.030;-2.680693;-0.850494
6.040;-2.649460;-0.830462
6.050;-2.608574;-0.799419
6.060;-2.558971;-0.756630
6.070;-2.501243;-0.701193
6.080;-2.435731;-0.632099
6.090;-2.362688;-0.548471
6.100;-2.282464;-0.449845
6.110;-2.195716;-0.336384
6.120;-2.103611;-0.209033
6.130;-2.007978;-0.069687
6.140;-1.911317;0.078638
6.150;-1.816577;0.231703
6.160;-1.726708;0.384135
6.170;-1.644108;0.529817
6.180;-1.570181;0.662565
6.190;-1.505169;0.777021
6.200;-1.448337;0.869584
6.210;-1.398363;0.939118
6.220;-1.353740;0.987189
6.230;-1.313017;1.017688
6.240;-1.274865;1.035902
6.250;-1.238067;1.047356
6.260;-1.201561;1.056808
6.270;-1.164559;1.067686
6.280;-1.126702;1.081978
6.290;-1.088141;1.100408
6.300;-1.049528;1.122693
6.310;-1.011940;1.147767
6.320;-0.976773;1.174027
6.330;-0.945623;1.199646
6.340;-0.920106;1.222977
6.350;-0.901647;1.242926
6.360;-0.891303;1.259112
6.370;-0.889723;1.271723
6.380;-0.897268;1.281070
6.390;-0.914200;1.287035
6.400;-0.940777;1.288690
6.410;-0.977144;1.284274
6.420;-1.023042;1.271544
6.430;-1.077505;1.248291
6.440;-1.138743;1.212832
6.450;-1.204292;1.164366
6.460;-1.271355;1.103200
6.470;-1.337162;1.030885
6.480;-1.399197;0.950247
6.490;-1.455255;0.865235
6.500;-1.503372;0.780472
6.510;-1.541729;0.700546
6.520;-1.568630;0.629192
6.530;-1.582611;0.568668
6.540;-1.582660;0.519541
6.550;-1.568502;0.480933
6.560;-1.540853;0.451086
6.570;-1.501529;0.427949
6.580;-1.453350;0.409561
6.590;-1.399789;0.394140
6.600;-1.344438;0.379989
6.610;-1.290463;0.365400
6.620;-1.240227;0.348684
6.630;-1.195263;0.328316
6.640;-1.156578;0.303145
6.650;-1.125145;0.272564
6.660;-1.102337;0.236632
6.670;-1.090082;0.196146
6.680;-1.090622;0.152704
6.690;-1.105972;0.108701
6.700;-1.137311;0.067126
6.710;-1.184596;0.031067
6.720;-1.246572;0.003002
6.730;-1.321115;-0.015818
6.740;-1.405635;-0.025533
6.750;-1.497261;-0.027222
6.760;-1.592705;-0.022056
6.770;-1.688019;-0.010503
6.780;-1.778584;0.007991
6.790;-1.859542;0.034723
6.800;-1.926597;0.071062
6.810;-1.976805;0.117722
6.820;-2.009022;0.174280
6.830;-2.023878;0.239039
6.840;-2.023371;0.309207
6.850;-2.010285;0.381296
6.860;-1.987573;0.451662
6.870;-1.957769;0.517067
6.880;-1.922534;0.575131
6.890;-1.882437;0.624547
6.900;-1.837125;0.664979
6.910;-1.785877;0.696705
6.920;-1.728410;0.720131
6.930;-1.665628;0.735392
6.940;-1.600069;0.742182
6.950;-1.535880;0.739827
6.960;-1.478380;0.727518
6.970;-1.433317;0.704606
6.980;-1.405954;0.670913
6.990;-1.400095;0.627089
7.000;-1.417202;0.574974
7.010;-1.455864;0.517792
7.020;-1.511909;0.459943
7.030;-1.579324;0.406268
7.040;-1.651789;0.360979
7.050;-1.724281;0.326721
7.060;-1.794069;0.304253
7.070;-1.860674;0.292871
7.080;-1.924913;0.291290
7.090;-1.987533;0.298463
7.100;-2.048072;0.313900
7.110;-2.104373;0.337413
7.120;-2.152872;0.368476
7.130;-2.189500;0.405602
7.140;-2.210906;0.446095
7.150;-2.215611;0.486314
7.160;-2.204711;0.522346
7.170;-2.181880;0.550826
7.180;-2.152653;0.569592
7.190;-2.123189;0.578033
7.200;-2.098921;0.577086
7.210;-2.083485;0.568915
7.220;-2.078230;0.556326
7.230;-2.082349;0.542057
7.240;-2.093476;0.528093
7.250;-2.108489;0.515209
7.260;-2.124222;0.502876
7.270;-2.137946;0.489549
7.280;-2.147638;0.473266
7.290;-2.152119;0.452374
7.300;-2.151166;0.426182
7.310;-2.145552;0.395323
7.320;-2.136960;0.361725
7.330;-2.127714;0.328190
7.340;-2.120353;0.297723
7.350;-2.117108;0.272855
7.360;-2.119344;0.255185
7.370;-2.127085;0.245309
7.380;-2.138748;0.243091
7.390;-2.151275;0.248063
7.400;-2.160768;0.259657
7.410;-2.163544;0.277105
7.420;-2.157305;0.299095
7.430;-2.141987;0.323487
7.440;-2.119924;0.347373
7.450;-2.095263;0.367581
7.460;-2.072805;0.381442
7.470;-2.056676;0.387512
7.480;-2.049226;0.385929
7.490;-2.050464;0.378233
7.500;-2.058137;0.366704
7.510;-2.068395;0.353516
7.520;-2.076815;0.340080
7.530;-2.079521;0.326890
7.540;-2.074116;0.313916
7.550;-2.060220;0.301287
7.560;-2.039503;0.289844
7.570;-2.015247;0.281269
7.580;-1.991557;0.277733
7.590;-1.972405;0.281276
7.600;-1.960687;0.293230
7.610;-1.957480;0.313909
7.620;-1.961743;0.342617
7.630;-1.970570;0.377891
7.640;-1.979975;0.417827
7.650;-1.985943;0.460392
7.660;-1.985356;0.503667
7.670;-1.976518;0.546015
7.680;-1.959191;0.586154
7.690;-1.934289;0.623111
7.700;-1.903440;0.656058
7.710;-1.868581;0.684109
7.720;-1.831585;0.706176
7.730;-1.793928;0.721025
7.740;-1.756422;0.727516
7.750;-1.719127;0.724938
7.760;-1.681524;0.713278
7.770;-1.642910;0.693315
7.780;-1.602883;0.666492
7.790;-1.561724;0.634617
7.800;-1.520557;0.599495
7.810;-1.481228;0.562647
7.820;-1.445912;0.525242
7.830;-1.416569;0.488267
7.840;-1.394430;0.452815
7.850;-1.379693;0.420317
7.860;-1.371554;0.392485
7.870;-1.368549;0.370970
7.880;-1.369048;0.356855
7.890;-1.371706;0.350257
7.900;-1.375687;0.350240
