Time[s];COPx[cm];COPy[cm]
0.010;-4.430193;2.986645
0.020;-4.461346;2.951136
0.030;-4.492062;2.915013
0.040;-4.521950;2.877655
0.050;-4.550665;2.838468
0.060;-4.577968;2.796973
0.070;-4.603810;2.752948
0.080;-4.628375;2.706639
0.090;-4.652038;2.658947
0.100;-4.675187;2.611444
0.110;-4.697957;2.566148
0.120;-4.720007;2.525059
0.130;-4.740525;2.489622
0.140;-4.758494;2.460346
0.150;-4.773097;2.436718
0.160;-4.784028;2.417432
0.170;-4.791567;2.400834
0.180;-4.796423;2.385417
0.190;-4.799423;2.370211
0.200;-4.801160;2.354978
0.210;-4.801715;2.340195
0.220;-4.800546;2.326836
0.230;-4.796633;2.315966
0.240;-4.788892;2.308300
0.250;-4.776729;2.303910
0.260;-4.760459;2.302234
0.270;-4.741320;2.302392
0.280;-4.721028;2.303634
0.290;-4.701122;2.305707
0.300;-4.682482;2.308954
0.310;-4.665262;2.314102
0.320;-4.649199;2.321872
0.330;-4.634021;2.332587
0.340;-4.619672;2.345963
0.350;-4.606227;2.361159
0.360;-4.593590;2.377028
0.370;-4.581166;2.392483
0.380;-4.567738;2.406835
0.390;-4.551677;2.419986
0.400;-4.531470;2.432384
0.410;-4.506328;2.444779
0.420;-4.476577;2.457893
0.430;-4.443664;2.472151
0.440;-4.409800;2.487595
0.450;-4.377411;2.503994
0.460;-4.348589;2.521086
0.470;-4.324681;2.538799
0.480;-4.306109;2.557323
0.490;-4.292429;2.576962
0.500;-4.282581;2.597896
0.510;-4.275231;2.620003
0.520;-4.269087;2.642844
0.530;-4.263110;2.665800
0.540;-4.256569;2.688251
0.550;-4.249001;2.709721
0.560;-4.240136;2.729936
0.570;-4.229883;2.748786
0.580;-4.218389;2.766201
0.590;-4.206125;2.782001
0.600;-4.193881;2.795848
0.610;-4.182614;2.807370
0.620;-4.173139;2.816444
0.630;-4.165784;2.823441
0.640;-4.160192;2.829274
0.650;-4.155387;2.835217
0.660;-4.150097;2.842571
0.670;-4.143163;2.852295
0.680;-4.133841;2.864729
0.690;-4.121903;2.879455
0.700;-4.107593;2.895408
0.710;-4.091560;2.911197
0.720;-4.074819;2.925558
0.730;-4.058684;2.937711
0.740;-4.044621;2.947483
0.750;-4.033959;2.955149
0.760;-4.027556;2.961081
0.770;-4.025544;2.965397
0.780;-4.027310;2.967783
0.790;-4.031733;2.967596
0.800;-4.037587;2.964220
0.810;-4.043913;2.957481
0.820;-4.050209;2.947934
0.830;-4.056382;2.936838
0.840;-4.062553;2.925823
0.850;-4.068815;2.916361
0.860;-4.075089;2.909295
0.870;-4.081107;2.904580
0.880;-4.086538;2.901320
0.890;-4.091156;2.898064
0.900;-4.094975;2.893248
0.910;-4.098262;2.885669
0.920;-4.101463;2.874837
0.930;-4.105077;2.861096
0.940;-4.109513;2.845496
0.950;-4.114954;2.829440
0.960;-4.121263;2.814278
0.970;-4.128009;2.800973
0.980;-4.134608;2.789973
0.990;-4.140539;2.781284
1.000;-4.145521;2.774657
1.010;-4.149599;2.769766
1.020;-4.153106;2.766269
1.030;-4.156550;2.763777
1.040;-4.160456;2.761789
1.050;-4.165194;2.759712
1.060;-4.170821;2.756998
1.070;-4.176969;2.753331
1.080;-4.182828;2.748764
1.090;-4.187284;2.743703
1.100;-4.189206;2.738753
1.110;-4.187826;2.734495
1.120;-4.183049;2.731292
1.130;-4.175577;2.729247
1.140;-4.166799;2.728325
1.150;-4.158507;2.728549
1.160;-4.152521;2.730113
1.170;-4.150298;2.733297
1.180;-4.152634;2.738249
1.190;-4.159511;2.744761
1.200;-4.170139;2.752193
1.210;-4.183170;2.759607
1.220;-4.197041;2.766079
1.230;-4.210320;2.771059
1.240;-4.221961;2.774616
1.250;-4.231436;2.777419
1.260;-4.238785;2.780471
1.270;-4.244624;2.784721
1.280;-4.250136;2.790718
1.290;-4.257059;2.798444
1.300;-4.267603;2.807361
1.310;-4.284255;2.816633
1.320;-4.309408;2.825398
1.330;-4.344836;2.832942
1.340;-4.391140;2.838681
1.350;-4.447379;2.842024
1.360;-4.511093;2.842288
1.370;-4.578771;2.838812
1.380;-4.646566;2.831280
1.390;-4.711013;2.820077
1.400;-4.769529;2.806453
1.410;-4.820595;2.792338
1.420;-4.863633;2.779866
1.430;-4.898679;2.770782
1.440;-4.926021;2.765983
1.450;-4.945982;2.765334
1.460;-4.958925;2.767803
1.470;-4.965411;2.771826
1.480;-4.966376;2.775732
1.490;-4.963188;2.778118
1.500;-4.957564;2.778075
1.510;-4.951372;2.775271
1.520;-4.946372;2.769897
1.530;-4.943948;2.762516
1.540;-4.944876;2.753853
1.550;-4.949165;2.744598
1.560;-4.956032;2.735303
1.570;-4.964029;2.726386
1.580;-4.971358;2.718207
1.590;-4.976308;2.711138
1.600;-4.977717;2.705544
1.610;-4.975275;2.701668
1.620;-4.969588;2.699496
1.630;-4.961998;2.698716
1.640;-4.954222;2.698827
1.650;-4.947922;2.699364
1.660;-4.944270;2.700091
1.670;-4.943601;2.701068
1.680;-4.945248;2.702578
1.690;-4.947640;2.704974
1.700;-4.948648;2.708520
1.710;-4.946079;2.713307
1.720;-4.938141;2.719242
1.730;-4.923781;2.726094
1.740;-4.902864;2.733564
1.750;-4.876238;2.741377
1.760;-4.845695;2.749411
1.770;-4.813759;2.757821
1.780;-4.783219;2.767063
1.790;-4.756473;2.777779
1.800;-4.734868;2.790534
1.810;-4.718289;2.805540
1.820;-4.705150;2.822483
1.830;-4.692815;2.840521
1.840;-4.678325;2.858407
1.850;-4.659222;2.874697
1.860;-4.634230;2.888018
1.870;-4.603590;2.897400
1.880;-4.568959;2.902599
1.890;-4.532935;2.904296
1.900;-4.498356;2.904006
1.910;-4.467608;2.903673
1.920;-4.442138;2.905096
1.930;-4.422280;2.909428
1.940;-4.407398;2.916975
1.950;-4.396225;2.927303
1.960;-4.387279;2.939528
1.970;-4.379224;2.952604
1.980;-4.371095;2.965520
1.990;-4.362402;2.977397
2.000;-4.353134;2.987545
2.010;-4.343689;2.995503
2.020;-4.334744;3.001085
2.030;-4.327041;3.004411
2.040;-4.321138;3.005875
2.050;-4.317201;3.006042
2.060;-4.314966;3.005514
2.070;-4.313915;3.004804
2.080;-4.313596;3.004262
2.090;-4.313888;3.004028
2.100;-4.315070;3.004056
2.110;-4.317644;3.004190
2.120;-4.322048;3.004288
2.130;-4.328434;3.004323
2.140;-4.336614;3.004409
2.150;-4.346213;3.004731
2.160;-4.356920;3.005424
2.170;-4.368690;3.006447
2.180;-4.381794;3.007537
2.190;-4.396694;3.008279
2.200;-4.413834;3.008268
2.210;-4.433460;3.007283
2.220;-4.455531;3.005377
2.230;-4.479756;3.002808
2.240;-4.505684;2.999850
2.250;-4.532826;2.996569
2.260;-4.560747;2.992712
2.270;-4.589131;2.987779
2.280;-4.617769;2.981216
2.290;-4.646484;2.972631
2.300;-4.675021;2.961903
2.310;-4.702991;2.949166
2.320;-4.729889;2.934714
2.330;-4.755182;2.918869
2.340;-4.778415;2.901879
2.350;-4.799282;2.883889
2.360;-4.817627;2.865029
2.370;-4.833371;2.845586
2.380;-4.846421;2.826137
2.390;-4.856630;2.807502
2.400;-4.863863;2.790523
2.410;-4.868136;2.775787
2.420;-4.869758;2.763460
2.430;-4.869336;2.753342
2.440;-4.867565;2.745054
2.450;-4.864879;2.738238
2.460;-4.861137;2.732641
2.470;-4.855558;2.728086
2.480;-4.847008;2.724363
2.490;-4.834526;2.721147
2.500;-4.817870;2.717974
2.510;-4.797820;2.714302
2.520;-4.776109;2.709652
2.530;-4.754969;2.703748
2.540;-4.736465;2.696623
2.550;-4.721892;2.688646
2.560;-4.711477;2.680470
2.570;-4.704505;2.672884
2.580;-4.699753;2.666590
2.590;-4.696056;2.661979
2.600;-4.692763;2.659035
2.610;-4.689921;2.657387
2.620;-4.688154;2.656513
2.630;-4.688272;2.655967
2.640;-4.690796;2.655533
2.650;-4.695627;2.655198
2.660;-4.701960;2.654961
2.670;-4.708478;2.654618
2.680;-4.713709;2.653707
2.690;-4.716405;2.651650
2.700;-4.715817;2.647981
2.710;-4.711796;2.642508
2.720;-4.704749;2.635373
2.730;-4.695511;2.627014
2.740;-4.685178;2.618092
2.750;-4.674926;2.609406
2.760;-4.665843;2.601800
2.770;-4.658761;2.596058
2.780;-4.654114;2.592770
2.790;-4.651839;2.592198
2.800;-4.651362;2.594156
2.810;-4.651720;2.597946
2.820;-4.651791;2.602410
2.830;-4.650584;2.606119
2.840;-4.647493;2.607690
2.850;-4.642436;2.606127
2.860;-4.635856;2.601105
2.870;-4.628596;2.593109
2.880;-4.621669;2.583348
2.890;-4.615965;2.573423
2.900;-4.611967;2.564812
2.910;-4.609618;2.558398
2.920;-4.608392;2.554254
2.930;-4.607586;2.551780
2.940;-4.606666;2.550091
2.950;-4.605501;2.548411
2.960;-4.604365;2.546288
2.970;-4.603710;2.543597
2.980;-4.603820;2.540440
2.990;-4.604507;2.537058
3.000;-4.605009;2.533797
3.010;-4.604169;2.531064
3.020;-4.600843;2.529245
3.030;-4.594355;2.528588
3.040;-4.584800;2.529106
3.050;-4.573064;2.530547
3.060;-4.560571;2.532450
3.070;-4.548877;2.534275
3.080;-4.539268;2.535590
3.090;-4.532462;2.536232
3.100;-4.528455;2.536380
3.110;-4.526519;2.536500
3.120;-4.525359;2.537190
3.130;-4.523405;2.538957
3.140;-4.519198;2.541999
3.150;-4.511766;2.546040
3.160;-4.500901;2.550322
3.170;-4.487267;2.553784
3.180;-4.472293;2.555427
3.190;-4.457853;2.554692
3.200;-4.445776;2.551705
3.210;-4.437348;2.547252
3.220;-4.432986;2.542515
3.230;-4.432221;2.538668
3.240;-4.433947;2.536496
3.250;-4.436820;2.536148
3.260;-4.439631;2.537108
3.270;-4.441545;2.538373
3.280;-4.442191;2.538802
3.290;-4.441596;2.537503
3.300;-4.440028;2.534134
3.310;-4.437825;2.529012
3.320;-4.435251;2.522961
3.330;-4.432446;2.516966
3.340;-4.429463;2.511798
3.350;-4.426377;2.507787
3.360;-4.423388;2.504835
3.370;-4.420872;2.502596
3.380;-4.419310;2.500702
3.390;-4.419132;2.498878
3.400;-4.420554;2.496929
3.410;-4.423509;2.494660
3.420;-4.427717;2.491804
3.430;-4.432823;2.488019
3.440;-4.438486;2.482952
3.450;-4.444380;2.476349
3.460;-4.450123;2.468201
3.470;-4.455232;2.458850
3.480;-4.459167;2.448993
3.490;-4.461495;2.439541
3.500;-4.462102;2.431364
3.510;-4.461374;2.425036
3.520;-4.460222;2.420660
3.530;-4.459896;2.417865
3.540;-4.461590;2.415955
3.550;-4.466014;2.414151
3.560;-4.473121;2.411818
3.570;-4.482147;2.408599
3.580;-4.491938;2.404416
3.590;-4.501407;2.399373
3.600;-4.509902;2.393613
3.610;-4.517360;2.387190
3.620;-4.524182;2.380040
3.630;-4.530936;2.372048
3.640;-4.538041;2.363214
3.650;-4.545565;2.353807
3.660;-4.553242;2.344421
3.670;-4.560655;2.335856
3.680;-4.567478;2.328866
3.690;-4.573654;2.323885
3.700;-4.579418;2.320853
3.710;-4.585199;2.319219
3.720;-4.591445;2.318143
3.730;-4.598489;2.316808
3.740;-4.606500;2.314725
3.750;-4.615504;2.311852
3.760;-4.625428;2.308452
3.770;-4.636134;2.304789
3.780;-4.647456;2.300819
3.790;-4.659237;2.296119
3.800;-4.671358;2.290072
3.810;-4.683737;2.282237
3.820;-4.696275;2.272684
3.830;-4.708774;2.262141
3.840;-4.720880;2.251879
3.850;-4.732101;2.243383
3.860;-4.741918;2.237956
3.870;-4.749958;2.236351
3.880;-4.756139;2.238551
3.890;-4.760734;2.243785
3.900;-4.764312;2.250790
3.910;-4.767570;2.258242
3.920;-4.771107;2.265144
3.930;-4.775208;2.271022
3.940;-4.779732;2.275876
3.950;-4.784176;2.279978
3.960;-4.787923;2.283626
3.970;-4.790552;2.286949
3.980;-4.792051;2.289800
3.990;-4.792816;2.291802
4.000;-4.793454;2.292515
4.010;-4.794520;2.291674
4.020;-4.796326;2.289377
4.030;-4.798909;2.286108
4.040;-4.802154;2.282576
4.050;-4.806028;2.279463
4.060;-4.810860;2.277212
4.070;-4.817570;2.275955
4.080;-4.827708;2.275577
4.090;-4.843185;2.275857
4.100;-4.865690;2.276573
4.110;-4.895968;2.277528
4.120;-4.933277;2.278481
4.130;-4.975264;2.279081
4.140;-5.018350;2.278861
4.150;-5.058467;2.277342
4.160;-5.091895;2.274188
4.170;-5.115954;2.269349
4.180;-5.129389;2.263116
4.190;-5.132379;2.256054
4.200;-5.126236;2.248863
4.210;-5.112938;2.242245
4.220;-5.094649;2.236795
4.230;-5.073365;2.232956
4.240;-5.050721;2.230990
4.250;-5.027951;2.230983
4.260;-5.005943;2.232850
4.270;-4.985329;2.236362
4.280;-4.966565;2.241175
4.290;-4.949974;2.246915
4.300;-4.935738;2.253289
4.310;-4.923824;2.260202
4.320;-4.913902;2.267783
4.330;-4.905311;2.276273
4.340;-4.897130;2.285818
4.350;-4.888357;2.296281
4.360;-4.878151;2.307204
4.370;-4.866049;2.317954
4.380;-4.852092;2.327984
4.390;-4.836808;2.337080
4.400;-4.821055;2.345459
4.410;-4.805761;2.353678
4.420;-4.791667;2.362385
4.430;-4.779156;2.372024
4.440;-4.768206;2.382622
4.450;-4.758435;2.393748
4.460;-4.749171;2.404694
4.470;-4.739536;2.414812
4.480;-4.728554;2.423841
4.490;-4.715318;2.432048
4.500;-4.699217;2.440108
4.510;-4.680186;2.448790
4.520;-4.658892;2.458601
4.530;-4.636717;2.469578
4.540;-4.615494;2.481308
4.550;-4.597021;2.493138
4.560;-4.582579;2.504471
4.570;-4.572626;2.514996
4.580;-4.566795;2.524792
4.590;-4.564132;2.534250
4.600;-4.563463;2.543872
4.610;-4.563695;2.553993
4.620;-4.563934;2.564531
4.630;-4.563419;2.574895
4.640;-4.561406;2.584125
4.650;-4.557157;2.591268
4.660;-4.550111;2.595833
4.670;-4.540129;2.598084
4.680;-4.527656;2.599007
4.690;-4.513681;2.599961
4.700;-4.499516;2.602207
4.710;-4.486519;2.606530
4.720;-4.475860;2.613080
4.730;-4.468370;2.621399
4.740;-4.464475;2.630590
4.750;-4.464202;2.639580
4.760;-4.467210;2.647375
4.770;-4.472885;2.653261
4.780;-4.480448;2.656886
4.790;-4.489055;2.658247
4.800;-4.497855;2.657610
4.810;-4.506049;2.655419
4.820;-4.512975;2.652218
4.830;-4.518234;2.648577
4.840;-4.521774;2.644998
4.850;-4.523923;2.641781
4.860;-4.525305;2.638911
4.870;-4.526685;2.636061
4.880;-4.528782;2.632795
4.890;-4.532127;2.628899
4.900;-4.537022;2.624662
4.910;-4.543556;2.620903
4.920;-4.551632;2.618691
4.930;-4.560938;2.618881
4.940;-4.570918;2.621699
4.950;-4.580815;2.626568
4.960;-4.589792;2.632250
4.970;-4.597104;2.637229
4.980;-4.602267;2.640195
4.990;-4.605196;2.640441
5.000;-4.606260;2.638044
5.010;-4.606238;2.633743
5.020;-4.606145;2.628569
5.030;-4.607000;2.623407
5.040;-4.609552;2.618700
5.050;-4.614060;2.614429
5.060;-4.620210;2.610300
5.070;-4.627222;2.606026
5.080;-4.634141;2.601530
5.090;-4.640162;2.596994
5.100;-4.644862;2.592724
5.110;-4.648242;2.588947
5.120;-4.650627;2.585656
5.130;-4.652507;2.582613
5.140;-4.654404;2.579478
5.150;-4.656788;2.575980
5.160;-4.660009;2.572021
5.170;-4.664265;2.567688
5.180;-4.669594;2.563215
5.190;-4.675851;2.558928
5.200;-4.682655;2.555192
5.210;-4.689341;2.552343
5.220;-4.695023;2.550620
5.230;-4.698829;2.550129
5.240;-4.700217;2.550858
5.250;-4.699209;2.552732
5.260;-4.696386;2.555709
5.270;-4.692649;2.559860
5.280;-4.688841;2.565377
5.290;-4.685418;2.572467
5.300;-4.682294;2.581201
5.310;-4.678934;2.591422
5.320;-4.674617;2.602789
5.330;-4.668770;2.614912
5.340;-4.661221;2.627505
5.350;-4.652301;2.640468
5.360;-4.642776;2.653893
5.370;-4.633669;2.667998
5.380;-4.626008;2.683008
5.390;-4.620539;2.699023
5.400;-4.617465;2.715901
5.410;-4.616297;2.733237
5.420;-4.615964;2.750467
5.430;-4.615197;2.767097
5.440;-4.613045;2.782920
5.450;-4.609270;2.798107
5.460;-4.604434;2.813093
5.470;-4.599667;2.828326
5.480;-4.596258;2.844006
5.490;-4.595254;2.859915
5.500;-4.597160;2.875406
5.510;-4.601836;2.889564
5.520;-4.608564;2.901518
5.530;-4.616280;2.910804
5.540;-4.623893;2.917617
5.550;-4.630577;2.922800
5.560;-4.635960;2.927552
5.570;-4.640138;2.932956
5.580;-4.643533;2.939555
5.590;-4.646645;2.947160
5.600;-4.649845;2.954972
5.610;-4.653275;2.961943
5.620;-4.656917;2.967166
5.630;-4.660748;2.970137
5.640;-4.664877;2.970796
5.650;-4.669577;2.969408
5.660;-4.675185;2.966390
5.670;-4.681942;2.962204
5.680;-4.689851;2.957367
5.690;-4.698614;2.952513
5.700;-4.707676;2.948375
5.710;-4.716344;2.945645
5.720;-4.723957;2.944746
5.730;-4.730051;2.945655
5.740;-4.734500;2.947860
5.750;-4.737589;2.950494
5.760;-4.739998;2.952586
5.770;-4.742669;2.953330
5.780;-4.746587;2.952279
5.790;-4.752528;2.949405
5.800;-4.760850;2.945057
5.810;-4.771372;2.939831
5.820;-4.783347;2.934395
5.830;-4.795571;2.929302
5.840;-4.806620;2.924881
5.850;-4.815191;2.921234
5.860;-4.820444;2.918358
5.870;-4.822220;2.916302
5.880;-4.821037;2.915261
5.890;-4.817876;2.915526
5.900;-4.813866;2.917316
5.910;-4.809991;2.920581
5.920;-4.806933;2.924889
5.930;-4.805063;2.929461
5.940;-4.804513;2.933363
5.950;-4.805262;2.935785
5.960;-4.807160;2.936307
5.970;-4.809921;2.935022
5.980;-4.813095;2.932442
5.990;-4.816104;2.929263
6.000;-4.818353;2.926118
6.010;-4.819387;2.923466
6.020;-4.819018;2.921612
6.030;-4.817335;2.920773
6.040;-4.814610;2.921116
6.050;-4.811189;2.922723
6.060;-4.807427;2.925529
6.070;-4.803693;2.929276
6.080;-4.800352;2.933528
6.090;-4.797745;2.937765
6.100;-4.796167;2.941550
6.110;-4.795853;2.944693
6.120;-4.796955;2.947341
6.130;-4.799460;2.949894
6.140;-4.803104;2.952770
6.150;-4.807354;2.956142
6.160;-4.811505;2.959822
6.170;-4.814872;2.963410
6.180;-4.816990;2.966604
6.190;-4.817748;2.969466
6.200;-4.817419;2.972462
6.210;-4.816589;2.976258
6.220;-4.815992;2.981390
6.230;-4.816271;2.987992
6.240;-4.817752;2.995717
6.250;-4.820314;3.003876
6.260;-4.823427;3.011682
6.270;-4.826348;3.018481
6.280;-4.828377;3.023930
6.290;-4.829098;3.028105
6.300;-4.828507;3.031520
6.310;-4.827004;3.035025
6.320;-4.825233;3.039550
6.330;-4.823806;3.045767
6.340;-4.823023;3.053790
6.350;-4.822704;3.063047
6.360;-4.822269;3.072427
6.370;-4.821022;3.080668
6.380;-4.818510;3.086818
6.390;-4.814763;3.090592
6.400;-4.810309;3.092442
6.410;-4.805967;3.093347
6.420;-4.802513;3.094418
6.430;-4.800372;3.096517
6.440;-4.799444;3.100060
6.450;-4.799115;3.105045
6.460;-4.798438;3.111228
6.470;-4.796393;3.118302
6.480;-4.792139;3.125994
6.490;-4.785202;3.134070
6.500;-4.775546;3.142312
6.510;-4.763535;3.150535
6.520;-4.749812;3.158621
6.530;-4.735135;3.166556
6.540;-4.720261;3.174433
6.550;-4.705879;3.182422
6.560;-4.692581;3.190734
6.570;-4.680815;3.199550
6.580;-4.670775;3.208945
6.590;-4.662300;3.218835
6.600;-4.654830;3.229018
6.610;-4.647539;3.239319
6.620;-4.639598;3.249740
6.630;-4.630506;3.260528
6.640;-4.620296;3.272057
6.650;-4.609510;3.284571
6.660;-4.598971;3.297899
6.670;-4.589481;3.311337
6.680;-4.581591;3.323794
6.690;-4.575509;3.334138
6.700;-4.571098;3.341571
6.710;-4.567895;3.345867
6.720;-4.565133;3.347412
6.730;-4.561824;3.347040
6.740;-4.556930;3.345743
6.750;-4.549631;3.344357
6.760;-4.539611;3.343344
6.770;-4.527235;3.342765
6.780;-4.513513;3.342410
6.790;-4.499799;3.342003
6.800;-4.487360;3.341324
6.810;-4.477000;3.340239
6.820;-4.468886;3.338638
6.830;-4.462601;3.336383
6.840;-4.457354;3.333304
6.850;-4.452276;3.329255
6.860;-4.446691;3.324189
6.870;-4.440290;3.318214
6.880;-4.433125;3.311604
6.890;-4.425411;3.304760
6.900;-4.417238;3.298129
6.910;-4.408394;3.292096
6.920;-4.398420;3.286855
6.930;-4.386858;3.282311
6.940;-4.373574;3.278090
6.950;-4.358940;3.273664
6.960;-4.343822;3.268560
6.970;-4.329363;3.262532
6.980;-4.316648;3.255601
6.990;-4.306398;3.247964
7.000;-4.298789;3.239856
7.010;-4.293451;3.231439
7.020;-4.289639;3.222792
7.030;-4.286509;3.213938
7.040;-4.283401;3.204886
7.050;-4.280059;3.195649
7.060;-4.276717;3.186224
7.070;-4.274010;3.176542
7.080;-4.272715;3.166429
7.090;-4.273444;3.155605
7.100;-4.276405;3.143785
7.110;-4.281343;3.130842
7.120;-4.287681;3.116948
7.130;-4.294797;3.102583
7.140;-4.302317;3.088382
7.150;-4.310315;3.074905
7.160;-4.319280;3.062454
7.170;-4.329863;3.050959
7.180;-4.342503;3.039985
7.190;-4.357146;3.028836
7.200;-4.373210;3.016782
7.210;-4.389811;3.003341
7.220;-4.406100;2.988495
7.230;-4.421532;2.972717
7.240;-4.435944;2.956781
7.250;-4.449444;2.941418
7.260;-4.462185;2.927005
7.270;-4.474148;2.913381
7.280;-4.485042;2.899879
7.290;-4.494398;2.885529
7.300;-4.501847;2.869393
7.310;-4.507432;2.850926
7.320;-4.511783;2.830249
7.330;-4.516012;2.808205
7.340;-4.521397;2.786119
7.350;-4.528983;2.765361
7.360;-4.539290;2.746901
7.370;-4.552246;2.731046
7.380;-4.567360;2.717455
7.390;-4.584038;2.705365
7.400;-4.601852;2.693942
7.410;-4.620577;2.682609
7.420;-4.639963;2.671221
7.430;-4.659387;2.660042
7.440;-4.677645;2.649555
7.450;-4.693074;2.640213
7.460;-4.704034;2.632244
7.470;-4.709551;2.625596
7.480;-4.709811;2.620005
7.490;-4.706252;2.615107
7.500;-4.701169;2.610488
7.510;-4.696973;2.605649
7.520;-4.695424;2.599980
7.530;-4.697129;2.592854
7.540;-4.701513;2.583843
7.550;-4.707223;2.572919
7.560;-4.712758;2.560519
7.570;-4.717022;2.547409
7.580;-4.719572;2.534444
7.590;-4.720524;2.522354
7.600;-4.720245;2.511608
7.610;-4.719050;2.502394
7.620;-4.717028;2.494671
7.630;-4.714050;2.488245
7.640;-4.709882;2.482824
7.650;-4.704305;2.478060
7.660;-4.697195;2.473592
7.670;-4.688531;2.469101
7.680;-4.678368;2.464353
7.690;-4.666777;2.459253
7.700;-4.653804;2.453862
7.710;-4.639459;2.448399
7.720;-4.623750;2.443203
7.730;-4.606754;2.438707
7.740;-4.588645;2.435427
7.750;-4.569643;2.433940
7.760;-4.549892;2.434807
7.770;-4.529316;2.438418
7.780;-4.507564;2.444823
7.790;-4.484111;2.453644
7.800;-4.458532;2.464109
7.810;-4.430840;2.475194
7.820;-4.401736;2.485794
7.830;-4.372599;2.494916
7.840;-4.345176;2.501884
7.850;-4.321039;2.506505
7.860;-4.301020;2.509120
7.870;-4.284860;2.510454
7.880;-4.271247;2.511341
7.890;-4.258251;2.512433
7.900;-4.244014;2.514061
7.910;-4.227415;2.516262
7.920;-4.208502;2.518942
7.930;-4.188510;2.522026
7.940;-4.169458;2.525519
7.950;-4.153452;2.529438
7.960;-4.141952;2.533687
7.970;-4.135304;2.537962
7.980;-4.132704;2.541756
