Time[s];COPx[cm];COPy[cm]
0.010;0.940355;-0.102389
0.020;0.991642;-0.115224
0.030;1.040053;-0.130498
0.040;1.083436;-0.149863
0.050;1.120343;-0.173549
0.060;1.150108;-0.200330
0.070;1.172808;-0.227948
0.080;1.189186;-0.253792
0.090;1.200557;-0.275544
0.100;1.208680;-0.291606
0.110;1.215546;-0.301254
0.120;1.223073;-0.304607
0.130;1.232779;-0.302512
0.140;1.245566;-0.296363
0.150;1.261663;-0.287833
0.160;1.280743;-0.278541
0.170;1.302125;-0.269760
0.180;1.324976;-0.262249
0.190;1.348463;-0.256288
0.200;1.371876;-0.251896
0.210;1.394705;-0.249131
0.220;1.416681;-0.248301
0.230;1.437737;-0.249962
0.240;1.457924;-0.254674
0.250;1.477268;-0.262651
0.260;1.495633;-0.273471
0.270;1.512640;-0.286011
0.280;1.527716;-0.298664
0.290;1.540228;-0.309771
0.300;1.549607;-0.318108
0.310;1.555344;-0.323253
0.320;1.556867;-0.325733
0.330;1.553428;-0.326928
0.340;1.544148;-0.328798
0.350;1.528274;-0.333492
0.360;1.505533;-0.342960
0.370;1.476395;-0.358621
0.380;1.442056;-0.381165
0.390;1.404122;-0.410499
0.400;1.364111;-0.445831
0.410;1.322997;-0.485849
0.420;1.280952;-0.528883
0.430;1.237408;-0.573031
0.440;1.191354;-0.616277
0.450;1.141796;-0.656643
0.460;1.088167;-0.692352
0.470;1.030588;-0.721931
0.480;0.969868;-0.744266
0.490;0.907284;-0.758666
0.500;0.844206;-0.764973
0.510;0.781688;-0.763673
0.520;0.720147;-0.755939
0.530;0.659236;-0.743548
0.540;0.597986;-0.728662
0.550;0.535213;-0.713509
0.560;0.470111;-0.700025
0.570;0.402837;-0.689568
0.580;0.334828;-0.682799
0.590;0.268633;-0.679718
0.600;0.207224;-0.679801
0.610;0.153040;-0.682133
0.620;0.107178;-0.685567
0.630;0.069059;-0.688903
0.640;0.036688;-0.691109
0.650;0.007358;-0.691514
0.660;-0.021487;-0.689934
0.670;-0.051552;-0.686669
0.680;-0.083331;-0.682353
0.690;-0.116168;-0.677707
0.700;-0.148654;-0.673252
0.710;-0.179218;-0.669062
0.720;-0.206699;-0.664656
0.730;-0.230717;-0.659123
0.740;-0.251715;-0.651482
0.750;-0.270670;-0.641124
0.760;-0.288593;-0.628060
0.770;-0.306029;-0.612837
0.780;-0.322754;-0.596163
0.790;-0.337780;-0.578486
0.800;-0.349655;-0.559718
0.810;-0.356907;-0.539186
0.820;-0.358446;-0.515802
0.830;-0.353767;-0.488359
0.840;-0.342932;-0.455931
0.850;-0.326407;-0.418295
0.860;-0.304875;-0.376273
0.870;-0.279117;-0.331806
0.880;-0.249930;-0.287647
0.890;-0.218062;-0.246731
0.900;-0.184173;-0.211448
0.910;-0.148831;-0.183075
0.920;-0.112557;-0.161549
0.930;-0.075902;-0.145636
0.940;-0.039490;-0.133378
0.950;-0.003984;-0.122635
0.960;0.030005;-0.111527
0.970;0.061978;-0.098648
0.980;0.091530;-0.083052
0.990;0.118242;-0.064113
1.000;0.141585;-0.041383
1.010;0.160919;-0.014583
1.020;0.175652;0.016236
1.030;0.185503;0.050446
1.040;0.190744;0.086640
1.050;0.192305;0.122609
1.060;0.191649;0.155594
1.070;0.190490;0.182729
1.080;0.190437;0.201595
1.090;0.192724;0.210686
1.100;0.198049;0.209724
1.110;0.206549;0.199730
1.120;0.217841;0.182883
1.130;0.231136;0.162137
1.140;0.245400;0.140698
1.150;0.259569;0.121506
1.160;0.272762;0.106903
1.170;0.284420;0.098515
1.180;0.294355;0.097248
1.190;0.302693;0.103290
1.200;0.309767;0.116098
1.210;0.316005;0.134459
1.220;0.321842;0.156706
1.230;0.327699;0.181091
1.240;0.334015;0.206181
1.250;0.341282;0.231097
1.260;0.350026;0.255517
1.270;0.360682;0.279495
1.280;0.373443;0.303197
1.290;0.388174;0.326700
1.300;0.404485;0.349861
1.310;0.421935;0.372239
1.320;0.440284;0.393056
1.330;0.459670;0.411237
1.340;0.480626;0.425604
1.350;0.503886;0.435233
1.360;0.530031;0.439873
1.370;0.559114;0.440268
1.380;0.590449;0.438224
1.390;0.622670;0.436347
1.400;0.654052;0.437514
1.410;0.682942;0.444206
1.420;0.708117;0.457926
1.430;0.728903;0.478880
1.440;0.745028;0.506033
1.450;0.756330;0.537504
1.460;0.762533;0.571172
1.470;0.763220;0.605286
1.480;0.758025;0.638902
1.490;0.746903;0.672030
1.500;0.730339;0.705459
1.510;0.709377;0.740346
1.520;0.685437;0.777732
1.530;0.659983;0.818128
1.540;0.634148;0.861290
1.550;0.608462;0.906242
1.560;0.582818;0.951500
1.570;0.556685;0.995416
1.580;0.529511;1.036510
1.590;0.501117;1.073722
1.600;0.471913;1.106537
1.610;0.442806;1.134978
1.620;0.414864;1.159506
1.630;0.388894;1.180849
1.640;0.365122;1.199798
1.650;0.343041;1.217016
1.660;0.321436;1.232925
1.670;0.298547;1.247699
1.680;0.272348;1.261349
1.690;0.240931;1.273860
1.700;0.202928;1.285324
1.710;0.157882;1.296005
1.720;0.106407;1.306313
1.730;0.050064;1.316677
1.740;-0.009050;1.327406
1.750;-0.068841;1.338581
1.760;-0.127725;1.350031
1.770;-0.184947;1.361347
1.780;-0.240643;1.371905
1.790;-0.295616;1.380914
1.800;-0.350927;1.387545
1.810;-0.407429;1.391159
1.820;-0.465417;1.391544
1.830;-0.524518;1.389032
1.840;-0.583849;1.384402
1.850;-0.642353;1.378584
1.860;-0.699142;1.372315
1.870;-0.753706;1.365912
1.880;-0.805887;1.359250
1.890;-0.855658;1.351941
1.900;-0.902798;1.343617
1.910;-0.946591;1.334178
1.920;-0.985693;1.323942
1.930;-1.018266;1.313645
1.940;-1.042407;1.304324
1.950;-1.056716;1.297109
1.960;-1.060732;1.292961
1.970;-1.055011;1.292416
1.980;-1.040786;1.295398
1.990;-1.019404;1.301161
2.000;-0.991862;1.308362
2.010;-0.958697;1.315281
2.020;-0.920285;1.320169
2.030;-0.877341;1.321658
2.040;-0.831302;1.319112
2.050;-0.784346;1.312788
2.060;-0.739073;1.303723
2.070;-0.698064;1.293409
2.080;-0.663605;1.283360
2.090;-0.637670;1.274729
2.100;-0.622076;1.268057
2.110;-0.618579;1.263245
2.120;-0.628747;1.259791
2.130;-0.653545;1.257221
2.140;-0.692748;1.255534
2.150;-0.744409;1.255425
2.160;-0.804721;1.258126
2.170;-0.868471;1.264843
2.180;-0.930021;1.276070
2.190;-0.984455;1.291111
2.200;-1.028421;1.308108
2.210;-1.060422;1.324545
2.220;-1.080569;1.337980
2.230;-1.090054;1.346659
2.240;-1.090589;1.349845
2.250;-1.083969;1.347845
2.260;-1.071746;1.341850
2.270;-1.055003;1.333710
2.280;-1.034236;1.325681
2.290;-1.009399;1.320161
2.300;-0.980123;1.319390
2.310;-0.946031;1.325139
2.320;-0.907012;1.338408
2.330;-0.863337;1.359184
2.340;-0.815618;1.386348
2.350;-0.764689;1.417779
2.360;-0.711516;1.450690
2.370;-0.657168;1.482122
2.380;-0.602787;1.509473
2.390;-0.549455;1.530929
2.400;-0.497912;1.545693
2.410;-0.448188;1.553979
2.420;-0.399349;1.556820
2.430;-0.349539;1.555759
2.440;-0.296417;1.552539
2.450;-0.237851;1.548824
2.460;-0.172629;1.545996
2.470;-0.100856;1.545014
2.480;-0.023893;1.546335
2.490;0.056134;1.549908
2.500;0.137023;1.555267
2.510;0.217100;1.561706
2.520;0.295506;1.568502
2.530;0.372117;1.575100
2.540;0.447210;1.581175
2.550;0.521100;1.586569
2.560;0.593925;1.591110
2.570;0.665628;1.594405
2.580;0.736021;1.595683
2.590;0.804860;1.593753
2.600;0.871866;1.587170
2.610;0.936714;1.574591
2.620;0.999026;1.555265
2.630;1.058346;1.529431
2.640;1.114115;1.498397
2.650;1.165657;1.464221
2.660;1.212169;1.429135
2.670;1.252734;1.395004
2.680;1.286346;1.363093
2.690;1.311953;1.334168
2.700;1.328570;1.308721
2.710;1.335475;1.287123
2.720;1.332459;1.269610
2.730;1.320045;1.256174
2.740;1.299580;1.246445
2.750;1.273157;1.239565
2.760;1.243356;1.234120
2.770;1.212856;1.228170
2.780;1.184028;1.219463
2.790;1.158601;1.205833
2.800;1.137449;1.185731
2.810;1.120504;1.158739
2.820;1.106782;1.125863
2.830;1.094543;1.089422
2.840;1.081593;1.052510
2.850;1.065750;1.018193
2.860;1.045375;0.988721
2.870;1.019807;0.965019
2.880;0.989483;0.946594
2.890;0.955641;0.931835
2.900;0.919683;0.918569
2.910;0.882475;0.904696
2.920;0.843901;0.888732
2.930;0.802876;0.870132
2.940;0.757781;0.849320
2.950;0.707102;0.827438
2.960;0.649984;0.805912
2.970;0.586528;0.785945
2.980;0.517747;0.768100
2.990;0.445244;0.752070
3.000;0.370717;0.736741
3.010;0.295490;0.720474
3.020;0.220252;0.701500
3.030;0.145141;0.678274
3.040;0.070136;0.649751
3.050;-0.004436;0.615603
3.060;-0.077531;0.576383
3.070;-0.147373;0.533584
3.080;-0.211796;0.489494
3.090;-0.268809;0.446780
3.100;-0.317120;0.407891
3.110;-0.356387;0.374480
3.120;-0.387088;0.347127
3.130;-0.410092;0.325535
3.140;-0.426138;0.309060
3.150;-0.435444;0.297259
3.160;-0.437580;0.290078
3.170;-0.431619;0.287624
3.180;-0.416476;0.289703
3.190;-0.391317;0.295453
3.200;-0.355941;0.303318
3.210;-0.311046;0.311409
3.220;-0.258344;0.318094
3.230;-0.200483;0.322553
3.240;-0.140752;0.325032
3.250;-0.082599;0.326687
3.260;-0.029073;0.329108
3.270;0.017652;0.333726
3.280;0.056504;0.341302
3.290;0.087445;0.351648
3.300;0.111179;0.363645
3.310;0.128782;0.375539
3.320;0.141380;0.385452
3.330;0.149957;0.391946
3.340;0.155332;0.394467
3.350;0.158267;0.393488
3.360;0.159618;0.390306
3.370;0.160385;0.386563
3.380;0.161582;0.383730
3.390;0.163960;0.382746
3.400;0.167747;0.383919
3.410;0.172568;0.386992
3.420;0.177615;0.391266
3.430;0.182018;0.395692
3.440;0.185267;0.398984
3.450;0.187520;0.399842
3.460;0.189693;0.397298
3.470;0.193280;0.391081
3.480;0.199944;0.381842
3.490;0.211000;0.371116
3.500;0.226947;0.361037
3.510;0.247228;0.353866
3.520;0.270288;0.351502
3.530;0.293943;0.355089
3.540;0.315944;0.364856
3.550;0.334566;0.380197
3.560;0.349021;0.399936
3.570;0.359541;0.422670
3.580;0.367113;0.447042
3.590;0.372989;0.471927
3.600;0.378191;0.496523
3.610;0.383207;0.520375
3.620;0.387942;0.543309
3.630;0.391888;0.565263
3.640;0.394399;0.586073
3.650;0.394958;0.605329
3.660;0.393312;0.622428
3.670;0.389464;0.636805
3.680;0.383569;0.648211
3.690;0.375854;0.656889
3.700;0.366630;0.663599
3.710;0.356343;0.669522
3.720;0.345589;0.676082
3.730;0.335036;0.684717
3.740;0.325278;0.696587
3.750;0.316662;0.712300
3.760;0.309180;0.731736
3.770;0.302467;0.754064
3.780;0.295922;0.777982
3.790;0.288890;0.802081
3.800;0.280849;0.825192
3.810;0.271549;0.846537
3.820;0.261079;0.865674
3.830;0.249869;0.882292
3.840;0.238630;0.896053
3.850;0.228237;0.906578
3.860;0.219548;0.913562
3.870;0.213181;0.916898
3.880;0.209354;0.916677
3.890;0.207866;0.913074
3.900;0.208237;0.906241
3.910;0.209920;0.896309
3.920;0.212472;0.883517
3.930;0.215614;0.868343
3.940;0.219196;0.851529
3.950;0.223111;0.833967
3.960;0.227244;0.816517
3.970;0.231481;0.799849
3.980;0.235759;0.784368
3.990;0.240079;0.770201
4.000;0.244462;0.757238
4.010;0.248839;0.745202
4.020;0.252965;0.733741
4.030;0.256404;0.722532
4.040;0.258603;0.711361
4.050;0.259040;0.700119
4.060;0.257390;0.688748
4.070;0.253643;0.677183
4.080;0.248113;0.665375
4.090;0.241340;0.653381
4.100;0.233904;0.641449
4.110;0.226222;0.630021
4.120;0.218384;0.619595
4.130;0.210104;0.610493
4.140;0.200854;0.602638
4.150;0.190177;0.595506
4.160;0.178068;0.588310
4.170;0.165224;0.580359
4.180;0.152999;0.571387
4.190;0.143057;0.561681
4.200;0.136839;0.551952
4.210;0.135105;0.543022
4.220;0.137739;0.535531
4.230;0.143919;0.529804
4.240;0.152546;0.525889
4.250;0.162721;0.523666
4.260;0.174047;0.522915
4.270;0.186643;0.523333
4.280;0.200914;0.524563
4.290;0.217214;0.526317
4.300;0.235614;0.528547
4.310;0.255833;0.531562
4.320;0.277327;0.535989
4.330;0.299438;0.542563
4.340;0.321532;0.551823
4.350;0.343082;0.563857
4.360;0.363696;0.578243
4.370;0.383065;0.594209
4.380;0.400889;0.610869
4.390;0.416809;0.627415
4.400;0.430412;0.643159
4.410;0.441263;0.657505
4.420;0.448971;0.669963
4.430;0.453257;0.680235
4.440;0.454060;0.688326
4.450;0.451694;0.694574
4.460;0.447012;0.699548
4.470;0.441443;0.703861
4.480;0.436776;0.707984
4.490;0.434729;0.712135
4.500;0.436477;0.716255
4.510;0.442366;0.720062
4.520;0.451941;0.723187
4.530;0.464242;0.725366
4.540;0.478187;0.726628
4.550;0.492879;0.727365
4.560;0.507732;0.728248
4.570;0.522441;0.730031
4.580;0.536850;0.733348
4.590;0.550815;0.738570
4.600;0.564127;0.745714
4.610;0.576535;0.754382
4.620;0.587844;0.763755
4.630;0.597998;0.772738
4.640;0.607079;0.780247
4.650;0.615198;0.785597
4.660;0.622332;0.788793
4.670;0.628216;0.790570
4.680;0.632361;0.792107
4.690;0.634222;0.794522
4.700;0.633429;0.798359
4.710;0.629961;0.803316
4.720;0.624178;0.808358
4.730;0.616687;0.812169
4.740;0.608107;0.813759
4.750;0.598849;0.812915
4.760;0.589041;0.810298
4.770;0.578592;0.807117
4.780;0.567363;0.804545
4.790;0.555310;0.803157
4.800;0.542525;0.802684
4.810;0.529182;0.802169
4.820;0.515449;0.800419
4.830;0.501430;0.796514
4.840;0.487139;0.790114
4.850;0.472449;0.781507
4.860;0.457031;0.771409
4.870;0.440316;0.760661
4.880;0.421567;0.749928
4.890;0.400087;0.739512
4.900;0.375497;0.729303
4.910;0.347944;0.718872
4.920;0.318130;0.707657
4.930;0.287122;0.695190
4.940;0.256039;0.681350
4.950;0.225740;0.666562
4.960;0.196633;0.651878
4.970;0.168686;0.638847
4.980;0.141620;0.629163
4.990;0.115183;0.624161
5.000;0.089404;0.624316
5.010;0.064698;0.628962
5.020;0.041787;0.636415
5.030;0.021439;0.644504
5.040;0.004133;0.651327
5.050;-0.010208;0.655877
5.060;-0.022294;0.658252
5.070;-0.033314;0.659358
5.080;-0.044585;0.660306
5.090;-0.057151;0.661843
5.100;-0.071475;0.664086
5.110;-0.087357;0.666633
5.120;-0.104100;0.668901
5.130;-0.120873;0.670491
5.140;-0.137078;0.671405
5.150;-0.152593;0.672073
5.160;-0.167743;0.673245
5.170;-0.183050;0.675824
5.180;-0.198908;0.680645
5.190;-0.215364;0.688242
5.200;-0.232137;0.698611
5.210;-0.248819;0.711076
5.220;-0.265136;0.724355
5.230;-0.281097;0.736818
5.240;-0.296977;0.746880
5.250;-0.313096;0.753408
5.260;-0.329494;0.755995
5.270;-0.345639;0.755021
5.280;-0.360320;0.751465
5.290;-0.371833;0.746564
5.300;-0.378387;0.741440
5.310;-0.378611;0.736864
5.320;-0.371924;0.733242
5.330;-0.358653;0.730774
5.340;-0.339876;0.729655
5.350;-0.317099;0.730137
5.360;-0.291920;0.732418
5.370;-0.265804;0.736434
5.380;-0.240021;0.741716
5.390;-0.215688;0.747446
5.400;-0.193843;0.752699
5.410;-0.175451;0.756749
5.420;-0.161339;0.759241
5.430;-0.152076;0.760149
5.440;-0.147840;0.759564
5.450;-0.148309;0.757476
5.460;-0.152617;0.753712
5.470;-0.159407;0.748050
5.480;-0.167010;0.740393
5.490;-0.173731;0.730870
5.500;-0.178150;0.719775
5.510;-0.179332;0.707423
5.520;-0.176839;0.694053
5.530;-0.170563;0.679883
5.540;-0.160487;0.665293
5.550;-0.146510;0.650980
5.560;-0.128458;0.637961
5.570;-0.106265;0.627336
5.580;-0.080221;0.619918
5.590;-0.051127;0.615866
5.600;-0.020261;0.614554
5.610;0.010850;0.614758
5.620;0.040782;0.615101
5.630;0.068552;0.614521
5.640;0.093833;0.612544
5.650;0.116994;0.609292
5.660;0.138943;0.605302
5.670;0.160830;0.601295
5.680;0.183691;0.597962
5.690;0.208148;0.595787
5.700;0.234243;0.594915
5.710;0.261463;0.595113
5.720;0.288936;0.595850
5.730;0.315688;0.596476
5.740;0.340891;0.596408
5.750;0.364018;0.595287
5.760;0.384912;0.593034
5.770;0.403765;0.589810
5.780;0.421011;0.585887
5.790;0.437154;0.581479
5.800;0.452569;0.576657
5.810;0.467379;0.571367
5.820;0.481427;0.565563
5.830;0.494367;0.559376
5.840;0.505782;0.553219
5.850;0.515281;0.547757
5.860;0.522516;0.543719
5.870;0.527165;0.541613
5.880;0.528957;0.541465
5.890;0.527775;0.542678
5.900;0.523773;0.544066
5.910;0.517390;0.544113
5.920;0.509197;0.541407
5.930;0.499650;0.535121
5.940;0.488906;0.525344
5.950;0.476837;0.513079
5.960;0.463245;0.499910
5.970;0.448132;0.487481
5.980;0.431837;0.477003
5.990;0.414954;0.468959
6.000;0.398057;0.463083
6.010;0.381394;0.458591
6.020;0.364715;0.454515
6.030;0.347346;0.449992
6.040;0.328444;0.444407
6.050;0.307268;0.437397
6.060;0.283335;0.428767
6.070;0.256381;0.418359
6.080;0.226239;0.405899
6.090;0.192747;0.390925
6.100;0.155768;0.372846
6.110;0.115301;0.351184
6.120;0.071592;0.325876
6.130;0.025168;0.297503
6.140;-0.023278;0.267289
6.150;-0.073102;0.236854
6.160;-0.123968;0.207828
6.170;-0.176006;0.181470
6.180;-0.229787;0.158402
6.190;-0.286088;0.138504
6.200;-0.345513;0.120985
6.210;-0.408111;0.104633
6.220;-0.473154;0.088195
6.230;-0.539153;0.070797
6.240;-0.604144;0.052292
6.250;-0.666089;0.033372
6.260;-0.723270;0.015378
6.270;-0.774509;-0.000174
6.280;-0.819158;-0.012186
6.290;-0.856914;-0.020433
6.300;-0.887584;-0.025669
6.310;-0.910933;-0.029349
6.320;-0.926681;-0.033105
6.330;-0.934621;-0.038187
6.340;-0.934760;-0.045107
6.350;-0.927433;-0.053579
6.360;-0.913318;-0.062745
6.370;-0.893404;-0.071557
6.380;-0.868918;-0.079161
6.390;-0.841253;-0.085132
6.400;-0.811936;-0.089496
6.410;-0.782644;-0.092579
6.420;-0.755271;-0.094792
6.430;-0.731930;-0.096491
6.440;-0.714766;-0.097951
6.450;-0.705560;-0.099451
6.460;-0.705202;-0.101360
6.470;-0.713280;-0.104144
6.480;-0.727938;-0.108248
6.490;-0.746104;-0.113849
6.500;-0.764014;-0.120558
6.510;-0.777907;-0.127195
6.520;-0.784666;-0.131805
6.530;-0.782276;-0.132013
6.540;-0.770016;-0.125643
6.550;-0.748418;-0.111369
6.560;-0.718976;-0.089138
6.570;-0.683668;-0.060230
6.580;-0.644395;-0.026968
6.590;-0.602465;0.007790
6.600;-0.558299;0.041216
6.610;-0.511402;0.071041
6.620;-0.460630;0.095931
6.630;-0.404667;0.115634
6.640;-0.342607;0.130873
6.650;-0.274478;0.143037
6.660;-0.201557;0.153749
6.670;-0.126358;0.164393
6.680;-0.052251;0.175710
6.690;0.017197;0.187571
6.700;0.078997;0.199010
6.710;0.131375;0.208495
6.720;0.174076;0.214334
6.730;0.208217;0.215137
6.740;0.235781;0.210233
6.750;0.258932;0.199957
6.760;0.279399;0.185704
6.770;0.298103;0.169688
6.780;0.315085;0.154414
6.790;0.329672;0.142003
6.800;0.340797;0.133560
6.810;0.347362;0.128811
6.820;0.348584;0.126167
6.830;0.344251;0.123229
6.840;0.334880;0.117559
6.850;0.321741;0.107443
6.860;0.306738;0.092415
6.870;0.292144;0.073365
6.880;0.280185;0.052223
6.890;0.272557;0.031363
6.900;0.270019;0.012969
6.910;0.272200;-0.001422
6.920;0.277725;-0.011079
6.930;0.284586;-0.016011
6.940;0.290633;-0.016740
6.950;0.293999;-0.014059
6.960;0.293371;-0.008817
6.970;0.288064;-0.001783
6.980;0.277949;0.006453
6.990;0.263289;0.015507
7.000;0.244554;0.025163
7.010;0.222244;0.035200
7.020;0.196778;0.045158
7.030;0.168429;0.054163
7.040;0.137338;0.060966
7.050;0.103573;0.064212
7.060;0.067249;0.062824
7.070;0.028725;0.056366
7.080;-0.011215;0.045272
7.090;-0.051273;0.030878
7.100;-0.089758;0.015235
7.110;-0.124898;0.000708
7.120;-0.155267;-0.010566
7.130;-0.180136;-0.017227
7.140;-0.199604;-0.019088
7.150;-0.214445;-0.017225
7.160;-0.225790;-0.013705
7.170;-0.234778;-0.010990
7.180;-0.242337;-0.011210
7.190;-0.249119;-0.015559
7.200;-0.255557;-0.024033
7.210;-0.261966;-0.035541
7.220;-0.268611;-0.048268
7.230;-0.275717;-0.060116
7.240;-0.283423;-0.069091
7.250;-0.291736;-0.073635
7.260;-0.300557;-0.072909
7.270;-0.309787;-0.066994
7.280;-0.319472;-0.056923
7.290;-0.329928;-0.044445
7.300;-0.341755;-0.031563
7.310;-0.355716;-0.020009
7.320;-0.372468;-0.010850
7.330;-0.392238;-0.004340
7.340;-0.414598;-0.000009
7.350;-0.438464;0.003102
7.360;-0.462339;0.006135
7.370;-0.484700;0.010141
7.380;-0.504357;0.015876
7.390;-0.520651;0.023730
7.400;-0.533411;0.033738
7.410;-0.542726;0.045640
7.420;-0.548663;0.058958
7.430;-0.551073;0.073082
7.440;-0.549597;0.087390
7.450;-0.543835;0.101379
7.460;-0.533628;0.114737
7.470;-0.519321;0.127310
7.480;-0.501959;0.138989
7.490;-0.483288;0.149602
7.500;-0.465543;0.158880
7.510;-0.450997;0.166498
7.520;-0.441414;0.172158
7.530;-0.437590;0.175650
7.540;-0.439145;0.176917
7.550;-0.444651;0.176091
7.560;-0.452083;0.173530
7.570;-0.459478;0.169813
7.580;-0.465596;0.165661
7.590;-0.470324;0.161813
7.600;-0.474608;0.158872
7.610;-0.479931;0.157158
7.620;-0.487567;0.156635
7.630;-0.497951;0.156937
7.640;-0.510449;0.157514
7.650;-0.523538;0.157818
7.660;-0.535284;0.157447
7.670;-0.543882;0.156188
7.680;-0.548098;0.153978
7.690;-0.547507;0.150844
7.700;-0.542508;0.146868
7.710;-0.534165;0.142218
7.720;-0.523910;0.137214
7.730;-0.513206;0.132362
7.740;-0.503237;0.128283
7.750;-0.494714;0.125571
7.760;-0.487876;0.124610
7.770;-0.482631;0.125433
7.780;-0.478778;0.127665
7.790;-0.476185;0.130583
7.800;-0.474863;0.133278
7.810;-0.474906;0.134894
7.820;-0.476349;0.134867
7.830;-0.479020;0.133103
7.840;-0.482504;0.129997
7.850;-0.486296;0.126280
7.860;-0.490047;0.122740
7.870;-0.493782;0.119949
7.880;-0.497899;0.118133
7.890;-0.502952;0.117230
7.900;-0.509304;0.117065
7.910;-0.516817;0.117554
7.920;-0.524722;0.118843
7.930;-0.531751;0.121290
7.940;-0.536467;0.125265
7.950;-0.537689;0.130839
7.960;-0.534809;0.137500
7.970;-0.527887;0.144087
7.980;-0.517505;0.148992
7.990;-0.504488;0.150615
8.000;-0.489622;0.147901
8.010;-0.473493;0.140764
8.020;-0.456448;0.130209
8.030;-0.438650;0.118093
8.040;-0.420149;0.106586
8.050;-0.400933;0.097503
8.060;-0.380929;0.091766
8.070;-0.359983;0.089194
8.080;-0.337846;0.088730
8.090;-0.314227;0.088980
8.100;-0.288912;0.088770
8.110;-0.261956;0.087476
