Time[s];COPx[cm];COPy[cm]
0.010;-3.458071;-1.061562
0.020;-3.450047;-1.042089
0.030;-3.439263;-1.022465
0.040;-3.423746;-1.002595
0.050;-3.402872;-0.982484
0.060;-3.377431;-0.962336
0.070;-3.349288;-0.942603
0.080;-3.320786;-0.923905
0.090;-3.294126;-0.906834
0.100;-3.270904;-0.891708
0.110;-3.251920;-0.878388
0.120;-3.237266;-0.866286
0.130;-3.226546;-0.854524
0.140;-3.219099;-0.842188
0.150;-3.214125;-0.828530
0.160;-3.210751;-0.813092
0.170;-3.208138;-0.795743
0.180;-3.205660;-0.776678
0.190;-3.203116;-0.756382
0.200;-3.200826;-0.735583
0.210;-3.199521;-0.715191
0.220;-3.200021;-0.696249
0.230;-3.202816;-0.679885
0.240;-3.207736;-0.667252
0.250;-3.213840;-0.659430
0.260;-3.219538;-0.657297
0.270;-3.222862;-0.661405
0.280;-3.221791;-0.671891
0.290;-3.214545;-0.688450
0.300;-3.199843;-0.710366
0.310;-3.177121;-0.736640
0.320;-3.146634;-0.766234
0.330;-3.109382;-0.798365
0.340;-3.066828;-0.832740
0.350;-3.020481;-0.869600
0.360;-2.971527;-0.909511
0.370;-2.920653;-0.952992
0.380;-2.868139;-1.000129
0.390;-2.814140;-1.050374
0.400;-2.759013;-1.102597
0.410;-2.703552;-1.155358
0.420;-2.649022;-1.207238
0.430;-2.597013;-1.257078
0.440;-2.549173;-1.304043
0.450;-2.506966;-1.347524
0.460;-2.471530;-1.386973
0.470;-2.443647;-1.421772
0.480;-2.423772;-1.451206
0.490;-2.412021;-1.474566
0.500;-2.408141;-1.491337
0.510;-2.411525;-1.501408
0.520;-2.421337;-1.505241
0.530;-2.436731;-1.503912
0.540;-2.457084;-1.498961
0.550;-2.482105;-1.492105
0.560;-2.511766;-1.484899
0.570;-2.546056;-1.478503
0.580;-2.584660;-1.473562
0.590;-2.626683;-1.470206
0.600;-2.670527;-1.468083
0.610;-2.713984;-1.466449
0.620;-2.754560;-1.464327
0.630;-2.789944;-1.460719
0.640;-2.818501;-1.454824
0.650;-2.839639;-1.446182
0.660;-2.853912;-1.434697
0.670;-2.862804;-1.420572
0.680;-2.868288;-1.404203
0.690;-2.872332;-1.386083
0.700;-2.876515;-1.366731
0.710;-2.881840;-1.346663
0.720;-2.888716;-1.326409
0.730;-2.897088;-1.306545
0.740;-2.906647;-1.287699
0.750;-2.917068;-1.270493
0.760;-2.928190;-1.255457
0.770;-2.940093;-1.242940
0.780;-2.953048;-1.233085
0.790;-2.967419;-1.225852
0.800;-2.983536;-1.221073
0.810;-3.001602;-1.218519
0.820;-3.021627;-1.217957
0.830;-3.043403;-1.219179
0.840;-3.066532;-1.222014
0.850;-3.090501;-1.226328
0.860;-3.114758;-1.232016
0.870;-3.138778;-1.238957
0.880;-3.162073;-1.246976
0.890;-3.184176;-1.255810
0.900;-3.204575;-1.265115
0.910;-3.222627;-1.274507
0.920;-3.237474;-1.283646
0.930;-3.248041;-1.292325
0.940;-3.253168;-1.300532
0.950;-3.251864;-1.308440
0.960;-3.243586;-1.316313
0.970;-3.228441;-1.324352
0.980;-3.207211;-1.332555
0.990;-3.181189;-1.340682
1.000;-3.151898;-1.348362
1.010;-3.120767;-1.355273
1.020;-3.088882;-1.361232
1.030;-3.056880;-1.366129
1.040;-3.024982;-1.369731
1.050;-2.993149;-1.371506
1.060;-2.961302;-1.370595
1.070;-2.929539;-1.365944
1.080;-2.898284;-1.356527
1.090;-2.868300;-1.341574
1.100;-2.840567;-1.320732
1.110;-2.816069;-1.294138
1.120;-2.795580;-1.262422
1.130;-2.779488;-1.226637
1.140;-2.767707;-1.188136
1.150;-2.759687;-1.148390
1.160;-2.754509;-1.108791
1.170;-2.751029;-1.070460
1.180;-2.748005;-1.034111
1.190;-2.744172;-1.000021
1.200;-2.738265;-0.968101
1.210;-2.729023;-0.938030
1.220;-2.715196;-0.909397
1.230;-2.695538;-0.881793
1.240;-2.668817;-0.854849
1.250;-2.633849;-0.828220
1.260;-2.589578;-0.801553
1.270;-2.535157;-0.774475
1.280;-2.470023;-0.746630
1.290;-2.393948;-0.717787
1.300;-2.307114;-0.687962
1.310;-2.210218;-0.657534
1.320;-2.104561;-0.627283
1.330;-1.992063;-0.598341
1.340;-1.875161;-0.572018
1.350;-1.756590;-0.549526
1.360;-1.639141;-0.531687
1.370;-1.525465;-0.518747
1.380;-1.417949;-0.510354
1.390;-1.318683;-0.505710
1.400;-1.229448;-0.503833
1.410;-1.151683;-0.503838
1.420;-1.086429;-0.505139
1.430;-1.034279;-0.507515
1.440;-0.995397;-0.511028
1.450;-0.969594;-0.515852
1.460;-0.956447;-0.522118
1.470;-0.955395;-0.529819
1.480;-0.965783;-0.538816
1.490;-0.986839;-0.548909
1.500;-1.017588;-0.559919
1.510;-1.056754;-0.571736
1.520;-1.102723;-0.584321
1.530;-1.153580;-0.597699
1.540;-1.207251;-0.611954
1.550;-1.261681;-0.627225
1.560;-1.315016;-0.643681
1.570;-1.365735;-0.661446
1.580;-1.412686;-0.680511
1.590;-1.455053;-0.700664
1.600;-1.492294;-0.721501
1.610;-1.524085;-0.742518
1.620;-1.550298;-0.763254
1.630;-1.571011;-0.783404
1.640;-1.586506;-0.802866
1.650;-1.597233;-0.821708
1.660;-1.603717;-0.840104
1.670;-1.606392;-0.858278
1.680;-1.605474;-0.876489
1.690;-1.600930;-0.895045
1.700;-1.592595;-0.914276
1.710;-1.580391;-0.934474
1.720;-1.564534;-0.955778
1.730;-1.545668;-0.978095
1.740;-1.524885;-1.001072
1.750;-1.503639;-1.024142
1.760;-1.483591;-1.046625
1.770;-1.466382;-1.067870
1.780;-1.453392;-1.087412
1.790;-1.445526;-1.105125
1.800;-1.443070;-1.121310
1.810;-1.445660;-1.136676
1.820;-1.452399;-1.152177
1.830;-1.462088;-1.168759
1.840;-1.473516;-1.187090
1.850;-1.485701;-1.207374
1.860;-1.498014;-1.229307
1.870;-1.510189;-1.252214
1.880;-1.522256;-1.275308
1.890;-1.534454;-1.297988
1.900;-1.547130;-1.320042
1.910;-1.560638;-1.341691
1.920;-1.575266;-1.363472
1.930;-1.591217;-1.386042
1.940;-1.608665;-1.409954
1.950;-1.627829;-1.435540
1.960;-1.649037;-1.462897
1.970;-1.672725;-1.492001
1.980;-1.699366;-1.522873
1.990;-1.729364;-1.555725
2.000;-1.762979;-1.591015
2.010;-1.800302;-1.629367
2.020;-1.841286;-1.671398
2.030;-1.885785;-1.717538
2.040;-1.933583;-1.767907
2.050;-1.984374;-1.822271
2.060;-2.037712;-1.880007
2.070;-2.092908;-1.940050
2.080;-2.148899;-2.000841
2.090;-2.204101;-2.060339
2.100;-2.256321;-2.116174
2.110;-2.302804;-2.165929
2.120;-2.340493;-2.207514
2.130;-2.366462;-2.239500
2.140;-2.378390;-2.261337
2.150;-2.374841;-2.273330
2.160;-2.355226;-2.276386
2.170;-2.319450;-2.271626
2.180;-2.267493;-2.260036
2.190;-2.199161;-2.242329
2.200;-2.114168;-2.219077
2.210;-2.012498;-2.190997
2.220;-1.894875;-2.159219
2.230;-1.763109;-2.125354
2.240;-1.620162;-2.091360
2.250;-1.469897;-2.059230
2.260;-1.316607;-2.030661
2.270;-1.164509;-2.006788
2.280;-1.017347;-1.988089
2.290;-0.878195;-1.974452
2.300;-0.749444;-1.965356
2.310;-0.632924;-1.960026
2.320;-0.530091;-1.957512
2.330;-0.442214;-1.956700
2.340;-0.370490;-1.956351
2.350;-0.316055;-1.955228
2.360;-0.279929;-1.952295
2.370;-0.262889;-1.946896
2.380;-0.265280;-1.938844
2.390;-0.286794;-1.928412
2.400;-0.326245;-1.916245
2.410;-0.381484;-1.903195
2.420;-0.449470;-1.890105
2.430;-0.526524;-1.877559
2.440;-0.608684;-1.865667
2.450;-0.692078;-1.853957
2.460;-0.773239;-1.841447
2.470;-0.849350;-1.826867
2.480;-0.918410;-1.808960
2.490;-0.979324;-1.786722
2.500;-1.031898;-1.759496
2.510;-1.076716;-1.726920
2.520;-1.114947;-1.688802
2.530;-1.148139;-1.645014
2.540;-1.178046;-1.595461
2.550;-1.206482;-1.540148
2.560;-1.235171;-1.479301
2.570;-1.265597;-1.413499
2.580;-1.298917;-1.343736
2.590;-1.335951;-1.271361
2.600;-1.377282;-1.197900
2.610;-1.423399;-1.124780
2.620;-1.474831;-1.053059
2.630;-1.532217;-0.983222
2.640;-1.596297;-0.915123
2.650;-1.667792;-0.848112
2.660;-1.747145;-0.781374
2.670;-1.834131;-0.714404
2.680;-1.927439;-0.647452
2.690;-2.024397;-0.581753
2.700;-2.121022;-0.519380
2.710;-2.212520;-0.462726
2.720;-2.294163;-0.413778
2.730;-2.362288;-0.373466
2.740;-2.415062;-0.341340
2.750;-2.452685;-0.315698
2.760;-2.476986;-0.294085
2.770;-2.490597;-0.273935
2.780;-2.496051;-0.253137
2.790;-2.495134;-0.230383
2.800;-2.488693;-0.205257
2.810;-2.476887;-0.178118
2.820;-2.459717;-0.149841
2.830;-2.437558;-0.121502
2.840;-2.411484;-0.094116
2.850;-2.383300;-0.068492
2.860;-2.355346;-0.045202
2.870;-2.330205;-0.024613
2.880;-2.310407;-0.006943
2.890;-2.298175;0.007688
2.900;-2.295189;0.019212
2.910;-2.302402;0.027572
2.920;-2.319919;0.032702
2.930;-2.346988;0.034486
2.940;-2.382082;0.032689
2.950;-2.423050;0.026844
2.960;-2.467301;0.016160
2.970;-2.512026;-0.000447
2.980;-2.554453;-0.024128
2.990;-2.592082;-0.055772
3.000;-2.622804;-0.095753
3.010;-2.644839;-0.143915
3.020;-2.656495;-0.199802
3.030;-2.655880;-0.262964
3.040;-2.640767;-0.333185
3.050;-2.608749;-0.410531
3.060;-2.557700;-0.495211
3.070;-2.486415;-0.587301
3.080;-2.395178;-0.686435
3.090;-2.286011;-0.791589
3.100;-2.162487;-0.901053
3.110;-2.029162;-1.012607
3.120;-1.890856;-1.123837
3.130;-1.752074;-1.232465
3.140;-1.616706;-1.336609
3.150;-1.488008;-1.434939
3.160;-1.368714;-1.526721
3.170;-1.261096;-1.611779
3.180;-1.166926;-1.690413
3.190;-1.087351;-1.763282
3.200;-1.022794;-1.831259
3.210;-0.972959;-1.895274
3.220;-0.936941;-1.956145
3.230;-0.913412;-2.014420
3.240;-0.900826;-2.070276
3.250;-0.897604;-2.123503
3.260;-0.902273;-2.173628
3.270;-0.913520;-2.220162
3.280;-0.930162;-2.262890
3.290;-0.951071;-2.302095
3.300;-0.975100;-2.338629
3.310;-1.001077;-2.373843
3.320;-1.027878;-2.409408
3.330;-1.054547;-2.447124
3.340;-1.080405;-2.488700
3.350;-1.105117;-2.535533
3.360;-1.128663;-2.588453
3.370;-1.151239;-2.647506
3.380;-1.173104;-2.711850
3.390;-1.194443;-2.779858
3.400;-1.215301;-2.849429
3.410;-1.235588;-2.918427
3.420;-1.255139;-2.985075
3.430;-1.273766;-3.048147
3.440;-1.291270;-3.106913
3.450;-1.307427;-3.160887
3.460;-1.321975;-3.209562
3.470;-1.334638;-3.252285
3.480;-1.345190;-3.288331
3.490;-1.353521;-3.317108
3.500;-1.359683;-3.338372
3.510;-1.363873;-3.352371
3.520;-1.366343;-3.359850
3.530;-1.367269;-3.361948
3.540;-1.366621;-3.359990
3.550;-1.364094;-3.355265
3.560;-1.359151;-3.348814
3.570;-1.351138;-3.341314
3.580;-1.339445;-3.333039
3.590;-1.323644;-3.323904
3.600;-1.303548;-3.313531
3.610;-1.279167;-3.301274
3.620;-1.250541;-3.286192
3.630;-1.217524;-3.267003
3.640;-1.179616;-3.242107
3.650;-1.135944;-3.209762
3.660;-1.085443;-3.168402
3.670;-1.027189;-3.117009
3.680;-0.960788;-3.055375
3.690;-0.886690;-2.984186
3.700;-0.806326;-2.904880
3.710;-0.722001;-2.819340
3.720;-0.636568;-2.729527
3.730;-0.552991;-2.637165
3.740;-0.473924;-2.543617
3.750;-0.401451;-2.449953
3.760;-0.337041;-2.357134
3.770;-0.281674;-2.266167
3.780;-0.236026;-2.178124
3.790;-0.200624;-2.093972
3.800;-0.175879;-2.014284
3.810;-0.162050;-1.938943
3.820;-0.159192;-1.867000
3.830;-0.167217;-1.796774
3.840;-0.186072;-1.726171
3.850;-0.215991;-1.653094
3.860;-0.257678;-1.575810
3.870;-0.312339;-1.493133
3.880;-0.381484;-1.404453
3.890;-0.466545;-1.309647
3.900;-0.568374;-1.209018
3.910;-0.686742;-1.103298
3.920;-0.820008;-0.993737
3.930;-0.965059;-0.882208
3.940;-1.117609;-0.771229
3.950;-1.272790;-0.663818
3.960;-1.425891;-0.563150
3.970;-1.573020;-0.472079
3.980;-1.711470;-0.392662
3.990;-1.839701;-0.325810
4.000;-1.957070;-0.271174
4.010;-2.063479;-0.227312
4.020;-2.159123;-0.192068
4.030;-2.244373;-0.163056
4.040;-2.319775;-0.138061
4.050;-2.386106;-0.115242
4.060;-2.444444;-0.093136
4.070;-2.496201;-0.070562
4.080;-2.543055;-0.046542
4.090;-2.586808;-0.020327
4.100;-2.629215;0.008499
4.110;-2.671851;0.039881
4.120;-2.716016;0.073189
4.130;-2.762665;0.107177
4.140;-2.812356;0.140043
4.150;-2.865208;0.169606
4.160;-2.920916;0.193658
4.170;-2.978859;0.210415
4.180;-3.038334;0.218926
4.190;-3.098860;0.219257
4.200;-3.160450;0.212339
4.210;-3.223690;0.199557
4.220;-3.289587;0.182234
4.230;-3.359180;0.161238
4.240;-3.433061;0.136822
4.250;-3.510964;0.108682
4.260;-3.591576;0.076202
4.270;-3.672625;0.038792
4.280;-3.751204;-0.003728
4.290;-3.824230;-0.050804
4.300;-3.888918;-0.100990
4.310;-3.943171;-0.152077
4.320;-3.985785;-0.201545
4.330;-4.016437;-0.247244
4.340;-4.035460;-0.288065
4.350;-4.043472;-0.324355
4.360;-4.040975;-0.357876
4.370;-4.028062;-0.391304
4.380;-4.004354;-0.427431
4.390;-3.969197;-0.468366
4.400;-3.922054;-0.514989
4.410;-3.862939;-0.566841
4.420;-3.792688;-0.622445
4.430;-3.712973;-0.679889
4.440;-3.625999;-0.737421
4.450;-3.534043;-0.793838
4.460;-3.438993;-0.848532
4.470;-3.342085;-0.901244
4.480;-3.243902;-0.951685
4.490;-3.144577;-0.999212
4.500;-3.044063;-1.042722
4.510;-2.942396;-1.080789
4.520;-2.839876;-1.111997
4.530;-2.737153;-1.135320
4.540;-2.635166;-1.150417
4.550;-2.534948;-1.157731
4.560;-2.437342;-1.158410
4.570;-2.342763;-1.154091
4.580;-2.251117;-1.146644
4.590;-2.161873;-1.137924
4.600;-2.074271;-1.129571
4.610;-1.987585;-1.122840
4.620;-1.901378;-1.118505
4.630;-1.815690;-1.116828
4.640;-1.731101;-1.117627
4.650;-1.648669;-1.120426
4.660;-1.569719;-1.124637
4.670;-1.495557;-1.129679
4.680;-1.427122;-1.134997
4.690;-1.364719;-1.139999
4.700;-1.307916;-1.144014
4.710;-1.255698;-1.146314
4.720;-1.206851;-1.146172
4.730;-1.160441;-1.142912
4.740;-1.116233;-1.135928
4.750;-1.074895;-1.124706
4.760;-1.037938;-1.108921
4.770;-1.007398;-1.088626
4.780;-0.985400;-1.064454
4.790;-0.973701;-1.037687
4.800;-0.973343;-1.010079
4.810;-0.984457;-0.983478
4.820;-1.006242;-0.959365
4.830;-1.037132;-0.938496
4.840;-1.075119;-0.920723
4.850;-1.118142;-0.905032
4.860;-1.164411;-0.889796
4.870;-1.212584;-0.873188
4.880;-1.261764;-0.853664
4.890;-1.311369;-0.830383
4.900;-1.360946;-0.803440
4.910;-1.410014;-0.773842
4.920;-1.457987;-0.743229
4.930;-1.504195;-0.713468
4.940;-1.547942;-0.686248
4.950;-1.588572;-0.662798
4.960;-1.625529;-0.643779
4.970;-1.658416;-0.629318
4.980;-1.687091;-0.619156
4.990;-1.711752;-0.612793
5.000;-1.732973;-0.609591
5.010;-1.751619;-0.608811
5.020;-1.768660;-0.609638
5.030;-1.784908;-0.611256
5.040;-1.800809;-0.612995
5.050;-1.816361;-0.614539
5.060;-1.831211;-0.616063
5.070;-1.844878;-0.618204
5.080;-1.857026;-0.621820
5.090;-1.867677;-0.627636
5.100;-1.877281;-0.635924
5.110;-1.886614;-0.646354
5.120;-1.896560;-0.658057
5.130;-1.907846;-0.669876
5.140;-1.920823;-0.680702
5.150;-1.935382;-0.689746
5.160;-1.951021;-0.696657
5.170;-1.967040;-0.701477
5.180;-1.982768;-0.704485
5.190;-1.997718;-0.706032
5.200;-2.011636;-0.706394
5.210;-2.024453;-0.705691
5.220;-2.036208;-0.703828
5.230;-2.046956;-0.700475
5.240;-2.056686;-0.695090
5.250;-2.065270;-0.687028
5.260;-2.072472;-0.675716
5.270;-2.078046;-0.660851
5.280;-2.081872;-0.642513
5.290;-2.084053;-0.621153
5.300;-2.084926;-0.597444
5.310;-2.084990;-0.572082
5.320;-2.084823;-0.545643
5.330;-2.085048;-0.518536
5.340;-2.086347;-0.491018
5.350;-2.089507;-0.463213
5.360;-2.095439;-0.435113
5.370;-2.105116;-0.406616
5.380;-2.119439;-0.377635
5.390;-2.139026;-0.348277
5.400;-2.164011;-0.318969
5.410;-2.193940;-0.290476
5.420;-2.227850;-0.263774
5.430;-2.264533;-0.239858
5.440;-2.302868;-0.219515
5.450;-2.342098;-0.203145
5.460;-2.381926;-0.190643
5.470;-2.422450;-0.181419
5.480;-2.464005;-0.174554
5.490;-2.507002;-0.169072
5.500;-2.551826;-0.164210
5.510;-2.598803;-0.159600
5.520;-2.648202;-0.155329
5.530;-2.700255;-0.151883
5.540;-2.755168;-0.149984
5.550;-2.813115;-0.150378
5.560;-2.874223;-0.153633
5.570;-2.938578;-0.160003
5.580;-3.006244;-0.169411
5.590;-3.077269;-0.181542
5.600;-3.151649;-0.195985
5.610;-3.229242;-0.212380
5.620;-3.309657;-0.230490
5.630;-3.392130;-0.250199
5.640;-3.475408;-0.271404
5.650;-3.557638;-0.293860
5.660;-3.636351;-0.317050
5.670;-3.708640;-0.340164
5.680;-3.771603;-0.362239
5.690;-3.822940;-0.382403
5.700;-3.861468;-0.400138
5.710;-3.887317;-0.415386
5.720;-3.901718;-0.428481
5.730;-3.906503;-0.439924
5.740;-3.903550;-0.450155
5.750;-3.894367;-0.459435
5.760;-3.879935;-0.467900
5.770;-3.860756;-0.475693
5.780;-3.837003;-0.483072
5.790;-3.808685;-0.490401
5.800;-3.775767;-0.498035
5.810;-3.738272;-0.506205
5.820;-3.696380;-0.514977
5.830;-3.650522;-0.524313
5.840;-3.601454;-0.534169
5.850;-3.550249;-0.544554
5.860;-3.498190;-0.555524
5.870;-3.446608;-0.567138
5.880;-3.396701;-0.579442
5.890;-3.349355;-0.592497
5.900;-3.305003;-0.606438
5.910;-3.263522;-0.621491
5.920;-3.224247;-0.637911
5.930;-3.186110;-0.655869
5.940;-3.147906;-0.675371
5.950;-3.108584;-0.696276
5.960;-3.067443;-0.718427
5.970;-3.024155;-0.741830
5.980;-2.978648;-0.766774
5.990;-2.930917;-0.793803
6.000;-2.880881;-0.823549
6.010;-2.828333;-0.856479
6.020;-2.772999;-0.892690
6.030;-2.714637;-0.931837
6.040;-2.653119;-0.973251
6.050;-2.588455;-1.016153
6.060;-2.520765;-1.059861
6.070;-2.450227;-1.103861
6.080;-2.377050;-1.147714
6.090;-2.301488;-1.190896
6.100;-2.223883;-1.232682
6.110;-2.144734;-1.272177
6.120;-2.064759;-1.308474
6.130;-1.984905;-1.340888
6.140;-1.906312;-1.369150
6.150;-1.830215;-1.393467
6.160;-1.757806;-1.414391
6.170;-1.690101;-1.432566
6.180;-1.627864;-1.448470
6.190;-1.571583;-1.462325
6.200;-1.521511;-1.474194
6.210;-1.477723;-1.484169
6.220;-1.440170;-1.492520
6.230;-1.408731;-1.499720
6.240;-1.383250;-1.506367
6.250;-1.363533;-1.513043
6.260;-1.349283;-1.520187
6.270;-1.339985;-1.527989
6.280;-1.334829;-1.536328
6.290;-1.332731;-1.544717
6.300;-1.332469;-1.552283
6.310;-1.332863;-1.557792
6.320;-1.332947;-1.559743
6.330;-1.332022;-1.556551
6.340;-1.329615;-1.546773
6.350;-1.325353;-1.529347
6.360;-1.318841;-1.503797
6.370;-1.309635;-1.470368
6.380;-1.297335;-1.430073
6.390;-1.281779;-1.384639
6.400;-1.263239;-1.336308
6.410;-1.242497;-1.287468
6.420;-1.220745;-1.240178
6.430;-1.199347;-1.195724
6.440;-1.179567;-1.154391
6.450;-1.162363;-1.115550
6.460;-1.148324;-1.078040
6.470;-1.137712;-1.040672
6.480;-1.130570;-1.002673
6.490;-1.126873;-0.963882
6.500;-1.126713;-0.924649
6.510;-1.130471;-0.885479
6.520;-1.138944;-0.846567
6.530;-1.153381;-0.807420
6.540;-1.175449;-0.766718
6.550;-1.207149;-0.722495
6.560;-1.250654;-0.672616
6.570;-1.308003;-0.615429
6.580;-1.380616;-0.550450
6.590;-1.468701;-0.478899
6.600;-1.570757;-0.403909
6.610;-1.683445;-0.330232
6.620;-1.801987;-0.263419
6.630;-1.921053;-0.208614
6.640;-2.035842;-0.169338
6.650;-2.142945;-0.146726
6.660;-2.240645;-0.139492
6.670;-2.328569;-0.144606
6.680;-2.406910;-0.158335
6.690;-2.475622;-0.177194
6.700;-2.533953;-0.198502
6.710;-2.580486;-0.220510
6.720;-2.613609;-0.242229
6.730;-2.632144;-0.263186
6.740;-2.635885;-0.283210
6.750;-2.625840;-0.302304
6.760;-2.604168;-0.320559
6.770;-2.573846;-0.338120
6.780;-2.538208;-0.355194
6.790;-2.500466;-0.372096
6.800;-2.463337;-0.389301
6.810;-2.428862;-0.407447
6.820;-2.398420;-0.427259
6.830;-2.372879;-0.449383
6.840;-2.352790;-0.474161
6.850;-2.338542;-0.501448
6.860;-2.330433;-0.530560
6.870;-2.328633;-0.560429
6.880;-2.333083;-0.589899
6.890;-2.343371;-0.618036
6.900;-2.358651;-0.644322
6.910;-2.377668;-0.668693
6.920;-2.398894;-0.691468
6.930;-2.420720;-0.713243
6.940;-2.441635;-0.734777
6.950;-2.460334;-0.756909
6.960;-2.475786;-0.780468
6.970;-2.487242;-0.806190
6.980;-2.494220;-0.834586
6.990;-2.496471;-0.865829
7.000;-2.493958;-0.899668
7.010;-2.486844;-0.935451
7.020;-2.475485;-0.972251
7.030;-2.460418;-1.009058
7.040;-2.442360;-1.044979
7.050;-2.422241;-1.079386
7.060;-2.401254;-1.111951
7.070;-2.380864;-1.142587
7.080;-2.362729;-1.171332
7.090;-2.348551;-1.198253
7.100;-2.339900;-1.223430
7.110;-2.338066;-1.247007
7.120;-2.343967;-1.269258
7.130;-2.358099;-1.290590
7.140;-2.380499;-1.311482
7.150;-2.410725;-1.332355
7.160;-2.447863;-1.353487
7.170;-2.490575;-1.375010
7.180;-2.537229;-1.396986
7.190;-2.586093;-1.419501
7.200;-2.635573;-1.442724
7.210;-2.684430;-1.466872
7.220;-2.731881;-1.492126
7.230;-2.777528;-1.518514
7.240;-2.821126;-1.545846
7.250;-2.862269;-1.573689
7.260;-2.900136;-1.601392
7.270;-2.933398;-1.628142
7.280;-2.960372;-1.653035
7.290;-2.979400;-1.675173
7.300;-2.989359;-1.693760
7.310;-2.990127;-1.708204
7.320;-2.982795;-1.718225
7.330;-2.969492;-1.723977
7.340;-2.952873;-1.726145
7.350;-2.935495;-1.725948
7.360;-2.919298;-1.724949
7.370;-2.905381;-1.724701
7.380;-2.894071;-1.726315
7.390;-2.885201;-1.730169
7.400;-2.878413;-1.735876
7.410;-2.873379;-1.742532
7.420;-2.869866;-1.749099
7.430;-2.867697;-1.754765
7.440;-2.866677;-1.759129
7.450;-2.866535;-1.762207
7.460;-2.866917;-1.764299
7.470;-2.867417;-1.765807
7.480;-2.867635;-1.767072
7.490;-2.867209;-1.768274
7.500;-2.865825;-1.769405
7.510;-2.863215;-1.770302
7.520;-2.859151;-1.770748
7.530;-2.853446;-1.770629
7.540;-2.845977;-1.770083
7.550;-2.836722;-1.769605
7.560;-2.825778;-1.770044
7.570;-2.813347;-1.772460
7.580;-2.799648;-1.777879
7.590;-2.784764;-1.787025
7.600;-2.768464;-1.800156
7.610;-2.750083;-1.817031
7.620;-2.728514;-1.837026
7.630;-2.702376;-1.859349
7.640;-2.670314;-1.883284
7.650;-2.631327;-1.908367
7.660;-2.584999;-1.934407
7.670;-2.531538;-1.961355
7.680;-2.471613;-1.989076
7.690;-2.406107;-2.017150
