Time[s];COPx[cm];COPy[cm]
0.010;-2.093082;0.702278
0.020;-2.097149;0.698788
0.030;-2.099930;0.694864
0.040;-2.100480;0.690263
0.050;-2.098420;0.684990
0.060;-2.093966;0.679253
0.070;-2.087762;0.673346
0.080;-2.080602;0.667543
0.090;-2.073151;0.662071
0.100;-2.065800;0.657147
0.110;-2.058683;0.653025
0.120;-2.051820;0.649982
0.130;-2.045265;0.648236
0.140;-2.039173;0.647855
0.150;-2.033743;0.648722
0.160;-2.029079;0.650593
0.170;-2.025066;0.653189
0.180;-2.021333;0.656288
0.190;-2.017360;0.659765
0.200;-2.012655;0.663603
0.210;-2.006941;0.667903
0.220;-2.000258;0.672867
0.230;-1.992923;0.678749
0.240;-1.985371;0.685727
0.250;-1.977981;0.693777
0.260;-1.970965;0.702618
0.270;-1.964378;0.711790
0.280;-1.958202;0.720810
0.290;-1.952416;0.729316
0.300;-1.947002;0.737134
0.310;-1.941925;0.744268
0.320;-1.937104;0.750854
0.330;-1.932448;0.757133
0.340;-1.927897;0.763448
0.350;-1.923471;0.770193
0.360;-1.919282;0.777700
0.370;-1.915487;0.786094
0.380;-1.912224;0.795205
0.390;-1.909554;0.804627
0.400;-1.907448;0.813894
0.410;-1.905829;0.822695
0.420;-1.904610;0.830981
0.430;-1.903703;0.838909
0.440;-1.902984;0.846640
0.450;-1.902265;0.854140
0.460;-1.901318;0.861115
0.470;-1.899970;0.867157
0.480;-1.898193;0.871991
0.490;-1.896120;0.875669
0.500;-1.893970;0.878570
0.510;-1.891964;0.881227
0.520;-1.890282;0.884102
0.530;-1.889083;0.887429
0.540;-1.888526;0.891224
0.550;-1.888756;0.895375
0.560;-1.889828;0.899741
0.570;-1.891611;0.904175
0.580;-1.893752;0.908505
0.590;-1.895764;0.912531
0.600;-1.897228;0.916094
0.610;-1.897990;0.919171
0.620;-1.898223;0.921934
0.630;-1.898298;0.924721
0.640;-1.898554;0.927910
0.650;-1.899119;0.931765
0.660;-1.899882;0.936301
0.670;-1.900625;0.941247
0.680;-1.901198;0.946118
0.690;-1.901640;0.950403
0.700;-1.902165;0.953786
0.710;-1.903045;0.956285
0.720;-1.904443;0.958212
0.730;-1.906265;0.960026
0.740;-1.908122;0.962153
0.750;-1.909427;0.964885
0.760;-1.909620;0.968343
0.770;-1.908398;0.972458
0.780;-1.905859;0.976957
0.790;-1.902484;0.981390
0.800;-1.898979;0.985251
0.810;-1.896048;0.988203
0.820;-1.894204;0.990284
0.830;-1.893691;0.991965
0.840;-1.894493;0.993971
0.850;-1.896406;0.996983
0.860;-1.899111;1.001363
0.870;-1.902210;1.007033
0.880;-1.905262;1.013519
0.890;-1.907863;1.020142
0.900;-1.909764;1.026264
0.910;-1.910991;1.031485
0.920;-1.911887;1.035710
0.930;-1.913016;1.039079
0.940;-1.914973;1.041816
0.950;-1.918167;1.044115
0.960;-1.922651;1.046097
0.970;-1.928083;1.047850
0.980;-1.933816;1.049480
0.990;-1.939098;1.051126
1.000;-1.943298;1.052893
1.010;-1.946081;1.054770
1.020;-1.947475;1.056584
1.030;-1.947834;1.058043
1.040;-1.947717;1.058853
1.050;-1.947751;1.058855
1.060;-1.948536;1.058141
1.070;-1.950580;1.057071
1.080;-1.954257;1.056171
1.090;-1.959742;1.055938
1.100;-1.966949;1.056644
1.110;-1.975506;1.058231
1.120;-1.984811;1.060365
1.130;-1.994174;1.062597
1.140;-2.002975;1.064563
1.150;-2.010807;1.066115
1.160;-2.017517;1.067316
1.170;-2.023179;1.068319
1.180;-2.028005;1.069202
1.190;-2.032244;1.069846
1.200;-2.036101;1.069952
1.210;-2.039710;1.069179
1.220;-2.043154;1.067329
1.230;-2.046516;1.064474
1.240;-2.049894;1.060967
1.250;-2.053392;1.057354
1.260;-2.057087;1.054233
1.270;-2.061000;1.052102
1.280;-2.065091;1.051201
1.290;-2.069259;1.051397
1.300;-2.073357;1.052182
1.310;-2.077212;1.052829
1.320;-2.080650;1.052661
1.330;-2.083556;1.051283
1.340;-2.085940;1.048665
1.350;-2.087990;1.045077
1.360;-2.090058;1.040959
1.370;-2.092565;1.036827
1.380;-2.095827;1.033214
1.390;-2.099898;1.030603
1.400;-2.104489;1.029312
1.410;-2.109042;1.029367
1.420;-2.112924;1.030454
1.430;-2.115683;1.032004
1.440;-2.117220;1.033418
1.450;-2.117826;1.034304
1.460;-2.118059;1.034626
1.470;-2.118539;1.034686
1.480;-2.119772;1.034950
1.490;-2.122038;1.035823
1.500;-2.125363;1.037478
1.510;-2.129546;1.039820
1.520;-2.134221;1.042579
1.530;-2.138953;1.045458
1.540;-2.143350;1.048252
1.550;-2.147147;1.050891
1.560;-2.150240;1.053427
1.570;-2.152674;1.055978
1.580;-2.154601;1.058668
1.590;-2.156206;1.061555
1.600;-2.157629;1.064581
1.610;-2.158910;1.067578
1.620;-2.160001;1.070310
1.630;-2.160824;1.072566
1.640;-2.161356;1.074240
1.650;-2.161678;1.075395
1.660;-2.161973;1.076261
1.670;-2.162465;1.077176
1.680;-2.163318;1.078449
1.690;-2.164539;1.080206
1.700;-2.165970;1.082306
1.710;-2.167369;1.084416
1.720;-2.168544;1.086189
1.730;-2.169464;1.087440
1.740;-2.170279;1.088217
1.750;-2.171257;1.088770
1.760;-2.172681;1.089464
1.770;-2.174744;1.090660
1.780;-2.177469;1.092561
1.790;-2.180679;1.095075
1.800;-2.184019;1.097797
1.810;-2.187023;1.100164
1.820;-2.189231;1.101724
1.830;-2.190320;1.102355
1.840;-2.190214;1.102323
1.850;-2.189117;1.102160
1.860;-2.187467;1.102447
1.870;-2.185825;1.103589
1.880;-2.184729;1.105671
1.890;-2.184571;1.108399
1.900;-2.185524;1.111172
1.910;-2.187525;1.113284
1.920;-2.190294;1.114201
1.930;-2.193372;1.113763
1.940;-2.196205;1.112226
1.950;-2.198287;1.110104
1.960;-2.199320;1.107945
1.970;-2.199333;1.106143
1.980;-2.198669;1.104875
1.990;-2.197862;1.104135
2.000;-2.197454;1.103814
2.010;-2.197827;1.103764
2.020;-2.199109;1.103832
2.030;-2.201163;1.103879
2.040;-2.203640;1.103805
2.050;-2.206084;1.103562
2.060;-2.208057;1.103161
2.070;-2.209279;1.102625
2.080;-2.209723;1.101927
2.090;-2.209635;1.100969
2.100;-2.209438;1.099608
2.110;-2.209564;1.097733
2.120;-2.210268;1.095349
2.130;-2.211539;1.092613
2.140;-2.213127;1.089809
2.150;-2.214686;1.087285
2.160;-2.215951;1.085357
2.170;-2.216876;1.084214
2.180;-2.217695;1.083829
2.190;-2.218856;1.083948
2.200;-2.220863;1.084163
2.210;-2.224074;1.084069
2.220;-2.228537;1.083424
2.230;-2.233932;1.082226
2.240;-2.239621;1.080661
2.250;-2.244808;1.078973
2.260;-2.248748;1.077334
2.270;-2.250954;1.075791
2.280;-2.251327;1.074292
2.290;-2.250175;1.072735
2.300;-2.248126;1.071021
2.310;-2.245945;1.069079
2.320;-2.244318;1.066893
2.330;-2.243654;1.064532
2.340;-2.244008;1.062155
2.350;-2.245115;1.059988
2.360;-2.246557;1.058244
2.370;-2.247953;1.057011
2.380;-2.249090;1.056170
2.390;-2.249931;1.055388
2.400;-2.250508;1.054220
2.410;-2.250796;1.052279
2.420;-2.250633;1.049383
2.430;-2.249756;1.045618
2.440;-2.247925;1.041281
2.450;-2.245054;1.036751
2.460;-2.241275;1.032336
2.470;-2.236900;1.028168
2.480;-2.232322;1.024174
2.490;-2.227900;1.020137
2.500;-2.223892;1.015802
2.510;-2.220434;1.011004
2.520;-2.217530;1.005729
2.530;-2.215067;1.000087
2.540;-2.212850;0.994218
2.550;-2.210665;0.988189
2.560;-2.208352;0.981982
2.570;-2.205864;0.975575
2.580;-2.203274;0.969033
2.590;-2.200722;0.962514
2.600;-2.198319;0.956173
2.610;-2.196053;0.950042
2.620;-2.193744;0.944001
2.630;-2.191109;0.937855
2.640;-2.187913;0.931496
2.650;-2.184116;0.925030
2.660;-2.179962;0.918799
2.670;-2.175925;0.913305
2.680;-2.172562;0.909072
2.690;-2.170315;0.906519
2.700;-2.169361;0.905854
2.710;-2.169570;0.907001
2.720;-2.170576;0.909604
2.730;-2.171919;0.913097
2.740;-2.173186;0.916869
2.750;-2.174085;0.920423
2.760;-2.174438;0.923509
2.770;-2.174130;0.926134
2.780;-2.173068;0.928473
2.790;-2.171205;0.930711
2.800;-2.168603;0.932931
2.810;-2.165464;0.935107
2.820;-2.162112;0.937192
2.830;-2.158913;0.939233
2.840;-2.156182;0.941397
2.850;-2.154135;0.943911
2.860;-2.152878;0.946950
2.870;-2.152433;0.950562
2.880;-2.152761;0.954670
2.890;-2.153753;0.959142
2.900;-2.155239;0.963847
2.910;-2.157009;0.968680
2.920;-2.158859;0.973560
2.930;-2.160624;0.978434
2.940;-2.162165;0.983288
2.950;-2.163334;0.988161
2.960;-2.163951;0.993122
2.970;-2.163850;0.998255
2.980;-2.162966;1.003619
2.990;-2.161428;1.009217
3.000;-2.159557;1.014939
3.010;-2.157767;1.020545
3.020;-2.156398;1.025726
3.030;-2.155581;1.030240
3.040;-2.155199;1.034067
3.050;-2.154975;1.037494
3.060;-2.154599;1.041051
3.070;-2.153843;1.045304
3.080;-2.152614;1.050606
3.090;-2.150945;1.056938
3.100;-2.148981;1.063939
3.110;-2.146951;1.071102
3.120;-2.145134;1.078022
3.130;-2.143793;1.084534
3.140;-2.143089;1.090700
3.150;-2.143009;1.096676
3.160;-2.143360;1.102595
3.170;-2.143850;1.108519
3.180;-2.144213;1.114458
3.190;-2.144333;1.120386
3.200;-2.144285;1.126241
3.210;-2.144292;1.131913
3.220;-2.144599;1.137240
3.230;-2.145339;1.142037
3.240;-2.146425;1.146138
3.250;-2.147553;1.149448
3.260;-2.148292;1.151972
3.270;-2.148252;1.153805
3.280;-2.147233;1.155092
3.290;-2.145303;1.155991
3.300;-2.142777;1.156656
3.310;-2.140100;1.157246
3.320;-2.137692;1.157898
3.330;-2.135802;1.158670
3.340;-2.134426;1.159463
3.350;-2.133318;1.160009
3.360;-2.132085;1.159970
3.370;-2.130327;1.159096
3.380;-2.127771;1.157368
3.390;-2.124350;1.155014
3.400;-2.120200;1.152423
3.410;-2.115574;1.149993
3.420;-2.110729;1.147996
3.430;-2.105824;1.146523
3.440;-2.100914;1.145484
3.450;-2.096003;1.144660
3.460;-2.091128;1.143777
3.470;-2.086400;1.142570
3.480;-2.081985;1.140874
3.490;-2.078048;1.138699
3.500;-2.074685;1.136262
3.510;-2.071868;1.133922
3.520;-2.069416;1.132027
3.530;-2.066994;1.130748
3.540;-2.064162;1.129984
3.550;-2.060482;1.129389
3.560;-2.055648;1.128501
3.570;-2.049597;1.126942
3.580;-2.042535;1.124589
3.590;-2.034898;1.121652
3.600;-2.027245;1.118597
3.610;-2.020123;1.115975
3.620;-2.013930;1.114214
3.630;-2.008822;1.113471
3.640;-2.004691;1.113611
3.650;-2.001245;1.114309
3.660;-1.998143;1.115181
3.670;-1.995142;1.115893
3.680;-1.992166;1.116206
3.690;-1.989300;1.115991
3.700;-1.986726;1.115242
3.710;-1.984626;1.114071
3.720;-1.983094;1.112671
3.730;-1.982064;1.111253
3.740;-1.981293;1.109986
3.750;-1.980422;1.108962
3.760;-1.979093;1.108182
3.770;-1.977080;1.107580
3.780;-1.974358;1.107090
3.790;-1.971085;1.106720
3.800;-1.967511;1.106584
3.810;-1.963884;1.106847
3.820;-1.960379;1.107598
3.830;-1.957092;1.108758
3.840;-1.954080;1.110080
3.850;-1.951393;1.111270
3.860;-1.949075;1.112122
3.870;-1.947115;1.112608
3.880;-1.945418;1.112872
3.890;-1.943824;1.113156
3.900;-1.942173;1.113666
3.910;-1.940391;1.114469
3.920;-1.938515;1.115461
3.930;-1.936669;1.116436
3.940;-1.934988;1.117222
3.950;-1.933553;1.117799
3.960;-1.932365;1.118328
3.970;-1.931367;1.119088
3.980;-1.930490;1.120363
3.990;-1.929683;1.122321
4.000;-1.928912;1.124926
4.010;-1.928140;1.127899
4.020;-1.927287;1.130786
4.030;-1.926217;1.133112
4.040;-1.924744;1.134543
4.050;-1.922679;1.134991
4.060;-1.919918;1.134597
4.070;-1.916525;1.133624
4.080;-1.912802;1.132339
4.090;-1.909269;1.130949
4.100;-1.906539;1.129584
4.110;-1.905108;1.128308
4.120;-1.905147;1.127136
4.130;-1.906418;1.126061
4.140;-1.908379;1.125098
4.150;-1.910405;1.124311
4.160;-1.912047;1.123806
4.170;-1.913158;1.123683
4.180;-1.913843;1.123995
4.190;-1.914291;1.124730
4.200;-1.914625;1.125805
4.210;-1.914880;1.127087
4.220;-1.915106;1.128394
4.230;-1.915475;1.129516
4.240;-1.916281;1.130247
4.250;-1.917840;1.130454
4.260;-1.920332;1.130142
4.270;-1.923724;1.129453
4.280;-1.927795;1.128594
4.290;-1.932253;1.127732
4.300;-1.936877;1.126936
4.310;-1.941599;1.126215
4.320;-1.946522;1.125622
4.330;-1.951832;1.125327
4.340;-1.957675;1.125590
4.350;-1.964028;1.126612
4.360;-1.970668;1.128376
4.370;-1.977225;1.130593
4.380;-1.983291;1.132815
4.390;-1.988518;1.134603
4.400;-1.992668;1.135667
4.410;-1.995629;1.135894
4.420;-1.997419;1.135308
4.430;-1.998179;1.134008
4.440;-1.998141;1.132117
4.450;-1.997590;1.129779
4.460;-1.996817;1.127205
4.470;-1.996071;1.124711
4.480;-1.995504;1.122699
4.490;-1.995136;1.121542
4.500;-1.994859;1.121427
4.510;-1.994502;1.122248
4.520;-1.993925;1.123624
4.530;-1.993113;1.125043
4.540;-1.992208;1.126051
4.550;-1.991464;1.126401
4.560;-1.991142;1.126097
4.570;-1.991392;1.125332
4.580;-1.992171;1.124390
4.590;-1.993217;1.123551
4.600;-1.994112;1.123041
4.610;-1.994407;1.123027
4.620;-1.993773;1.123634
4.630;-1.992140;1.124953
4.640;-1.989761;1.127033
4.650;-1.987165;1.129830
4.660;-1.984989;1.133160
4.670;-1.983734;1.136667
4.680;-1.983585;1.139860
4.690;-1.984354;1.142218
4.700;-1.985599;1.143330
4.710;-1.986819;1.143026
4.720;-1.987641;1.141430
4.730;-1.987891;1.138931
4.740;-1.987552;1.136066
4.750;-1.986656;1.133375
4.760;-1.985207;1.131273
4.770;-1.983187;1.129962
4.780;-1.980636;1.129361
4.790;-1.977729;1.129098
4.800;-1.974782;1.128595
4.810;-1.972168;1.127257
4.820;-1.970202;1.124728
4.830;-1.969071;1.121072
4.840;-1.968832;1.116806
4.850;-1.969461;1.112740
4.860;-1.970890;1.109714
4.870;-1.973009;1.108318
4.880;-1.975640;1.108699
4.890;-1.978530;1.110540
4.900;-1.981403;1.113221
4.910;-1.984039;1.116088
4.920;-1.986350;1.118702
4.930;-1.988383;1.120941
4.940;-1.990260;1.122932
4.950;-1.992084;1.124873
4.960;-1.993877;1.126880
4.970;-1.995569;1.128928
4.980;-1.997048;1.130896
4.990;-1.998202;1.132669
5.000;-1.998939;1.134253
5.010;-1.999173;1.135830
5.020;-1.998822;1.137742
5.030;-1.997833;1.140371
5.040;-1.996260;1.143968
5.050;-1.994306;1.148479
5.060;-1.992294;1.153495
5.070;-1.990554;1.158341
5.080;-1.989287;1.162332
5.090;-1.988501;1.165046
5.100;-1.988039;1.166505
5.110;-1.987689;1.167174
5.120;-1.987304;1.167804
5.130;-1.986863;1.169186
5.140;-1.986472;1.171900
5.150;-1.986314;1.176130
5.160;-1.986602;1.181600
5.170;-1.987515;1.187669
5.180;-1.989113;1.193558
5.190;-1.991257;1.198642
5.200;-1.993572;1.202654
5.210;-1.995530;1.205720
5.220;-1.996664;1.208215
5.230;-1.996816;1.210541
5.240;-1.996299;1.212942
5.250;-1.995845;1.215440
5.260;-1.996342;1.217894
5.270;-1.998457;1.220127
5.280;-2.002335;1.222018
5.290;-2.007516;1.223523
5.300;-2.013095;1.224646
5.310;-2.018039;1.225394
5.320;-2.021521;1.225770
5.330;-2.023144;1.225797
5.340;-2.022991;1.225556
5.350;-2.021504;1.225198
5.360;-2.019252;1.224922
5.370;-2.016688;1.224918
5.380;-2.014007;1.225321
5.390;-2.011172;1.226188
5.400;-2.008046;1.227494
5.410;-2.004555;1.229128
5.420;-2.000784;1.230894
5.430;-1.996993;1.232524
5.440;-1.993557;1.233739
5.450;-1.990890;1.234326
5.460;-1.989346;1.234192
5.470;-1.989144;1.233352
5.480;-1.990305;1.231872
5.490;-1.992612;1.229810
5.500;-1.995621;1.227202
5.510;-1.998745;1.224105
5.520;-2.001385;1.220643
5.530;-2.003091;1.217020
5.540;-2.003661;1.213493
5.550;-2.003156;1.210298
5.560;-2.001839;1.207561
5.570;-2.000096;1.205232
5.580;-1.998363;1.203111
5.590;-1.997063;1.200972
5.600;-1.996542;1.198722
5.610;-1.996994;1.196462
5.620;-1.998382;1.194407
5.630;-2.000409;1.192734
5.640;-2.002584;1.191444
5.650;-2.004393;1.190339
5.660;-2.005492;1.189088
5.670;-2.005847;1.187356
5.680;-2.005757;1.184920
5.690;-2.005760;1.181756
5.700;-2.006459;1.178052
5.710;-2.008310;1.174144
5.720;-2.011471;1.170373
5.730;-2.015747;1.166953
5.740;-2.020678;1.163907
5.750;-2.025704;1.161129
5.760;-2.030333;1.158491
5.770;-2.034242;1.155919
5.780;-2.037278;1.153414
5.790;-2.039400;1.151008
5.800;-2.040620;1.148714
5.810;-2.040995;1.146502
5.820;-2.040678;1.144322
5.830;-2.039991;1.142140
5.840;-2.039448;1.139966
5.850;-2.039667;1.137880
5.860;-2.041188;1.136055
5.870;-2.044276;1.134767
5.880;-2.048796;1.134337
5.890;-2.054229;1.134996
5.900;-2.059828;1.136743
5.910;-2.064841;1.139287
5.920;-2.068737;1.142106
5.930;-2.071358;1.144585
5.940;-2.072926;1.146162
5.950;-2.073912;1.146474
5.960;-2.074818;1.145452
5.970;-2.075990;1.143340
5.980;-2.077537;1.140609
5.990;-2.079386;1.137814
6.000;-2.081390;1.135437
6.010;-2.083413;1.133790
6.020;-2.085361;1.132981
6.030;-2.087175;1.132929
6.040;-2.088815;1.133405
6.050;-2.090262;1.134083
6.060;-2.091531;1.134632
6.070;-2.092675;1.134851
6.080;-2.093759;1.134780
6.090;-2.094828;1.134692
6.100;-2.095891;1.134931
6.110;-2.096923;1.135697
6.120;-2.097916;1.136917
6.130;-2.098916;1.138291
6.140;-2.100011;1.139475
6.150;-2.101267;1.140266
6.160;-2.102627;1.140684
6.170;-2.103852;1.140908
6.180;-2.104571;1.141118
6.190;-2.104430;1.141351
6.200;-2.103254;1.141452
6.210;-2.101161;1.141160
6.220;-2.098542;1.140263
6.230;-2.095919;1.138730
6.240;-2.093741;1.136734
6.250;-2.092188;1.134569
6.260;-2.091100;1.132521
6.270;-2.090077;1.130758
6.280;-2.088714;1.129301
6.290;-2.086850;1.128065
6.300;-2.084682;1.126926
6.310;-2.082675;1.125776
6.320;-2.081311;1.124543
6.330;-2.080816;1.123178
6.340;-2.081030;1.121629
6.350;-2.081454;1.119829
6.360;-2.081443;1.117725
6.370;-2.080432;1.115328
6.380;-2.078106;1.112744
6.390;-2.074476;1.110155
6.400;-2.069841;1.107731
6.410;-2.064658;1.105554
6.420;-2.059356;1.103594
6.430;-2.054154;1.101771
6.440;-2.048992;1.100021
6.450;-2.043587;1.098318
6.460;-2.037579;1.096629
6.470;-2.030679;1.094856
6.480;-2.022787;1.092819
6.490;-2.014021;1.090318
6.500;-2.004686;1.087237
6.510;-1.995184;1.083661
6.520;-1.985940;1.079920
6.530;-1.977367;1.076530
6.540;-1.969861;1.074022
6.550;-1.963794;1.072753
6.560;-1.959493;1.072769
6.570;-1.957219;1.073811
6.580;-1.957135;1.075446
6.590;-1.959284;1.077274
6.600;-1.963570;1.079115
6.610;-1.969756;1.081071
6.620;-1.977473;1.083441
6.630;-1.986268;1.086516
6.640;-1.995675;1.090380
6.650;-2.005317;1.094828
6.660;-2.014985;1.099454
6.670;-2.024653;1.103815
6.680;-2.034417;1.107582
6.690;-2.044393;1.110619
6.700;-2.054619;1.112979
6.710;-2.065024;1.114870
6.720;-2.075461;1.116596
6.730;-2.085805;1.118497
6.740;-2.096061;1.120890
6.750;-2.106415;1.124012
6.760;-2.117170;1.127961
6.770;-2.128596;1.132649
6.780;-2.140748;1.137814
6.790;-2.153353;1.143086
6.800;-2.165829;1.148113
6.810;-2.177442;1.152669
6.820;-2.187556;1.156671
6.830;-2.195876;1.160094
6.840;-2.202548;1.162842
6.850;-2.208057;1.164694
6.860;-2.212965;1.165386
6.870;-2.217647;1.164776
6.880;-2.222134;1.163005
6.890;-2.226138;1.160534
6.900;-2.229208;1.158032
6.910;-2.230945;1.156143
6.920;-2.231180;1.155252
6.930;-2.230070;1.155373
6.940;-2.228072;1.156175
6.950;-2.225840;1.157138
6.960;-2.224060;1.157730
6.970;-2.223273;1.157577
6.980;-2.223732;1.156557
6.990;-2.225349;1.154812
7.000;-2.227752;1.152655
7.010;-2.230429;1.150415
7.020;-2.232880;1.148286
7.030;-2.234731;1.146267
7.040;-2.235770;1.144201
7.050;-2.235945;1.141909
7.060;-2.235353;1.139296
7.070;-2.234226;1.136393
7.080;-2.232917;1.133311
7.090;-2.231831;1.130194
7.100;-2.231341;1.127190
7.110;-2.231703;1.124430
7.120;-2.233022;1.122001
7.130;-2.235273;1.119927
7.140;-2.238375;1.118174
7.150;-2.242278;1.116683
7.160;-2.247016;1.115380
7.170;-2.252714;1.114180
7.180;-2.259509;1.112990
7.190;-2.267437;1.111733
7.200;-2.276316;1.110387
7.210;-2.285672;1.109011
7.220;-2.294742;1.107737
7.230;-2.302584;1.106709
7.240;-2.308291;1.105967
7.250;-2.311238;1.105356
7.260;-2.311297;1.104560
7.270;-2.308887;1.103270
7.280;-2.304846;1.101382
7.290;-2.300124;1.099109
7.300;-2.295466;1.096917
7.310;-2.291202;1.095310
7.320;-2.287256;1.094600
7.330;-2.283310;1.094772
7.340;-2.279032;1.095501
7.350;-2.274242;1.096269
7.360;-2.268951;1.096535
7.370;-2.263311;1.095893
7.380;-2.257527;1.094210
7.390;-2.251789;1.091684
7.400;-2.246207;1.088814
7.410;-2.240776;1.086275
7.420;-2.235353;1.084730
7.430;-2.229687;1.084628
7.440;-2.223516;1.086074
7.450;-2.216690;1.088799
7.460;-2.209272;1.092257
7.470;-2.201535;1.095785
7.480;-2.193884;1.098784
7.490;-2.186720;1.100872
7.500;-2.180331;1.102004
7.510;-2.174827;1.102476
7.520;-2.170155;1.102820
7.530;-2.166163;1.103606
7.540;-2.162676;1.105215
7.550;-2.159543;1.107679
7.560;-2.156664;1.110656
7.570;-2.154012;1.113563
7.580;-2.151648;1.115815
7.590;-2.149734;1.117076
7.600;-2.148490;1.117404
7.610;-2.148126;1.117233
7.620;-2.148748;1.117186
7.630;-2.150310;1.117832
7.640;-2.152605;1.119482
7.650;-2.155306;1.122116
7.660;-2.158026;1.125436
7.670;-2.160414;1.128991
7.680;-2.162237;1.132315
7.690;-2.163421;1.135030
7.700;-2.164024;1.136911
7.710;-2.164162;1.137896
7.720;-2.163942;1.138072
7.730;-2.163458;1.137635
7.740;-2.162830;1.136858
7.750;-2.162244;1.136047
7.760;-2.161957;1.135496
7.770;-2.162224;1.135431
7.780;-2.163205;1.135954
7.790;-2.164900;1.137033
7.800;-2.167171;1.138527
7.810;-2.169838;1.140245
7.820;-2.172792;1.141986
7.830;-2.176043;1.143546
7.840;-2.179687;1.144702
7.850;-2.183830;1.145225
7.860;-2.188517;1.144936
7.870;-2.193706;1.143786
7.880;-2.199268;1.141930
7.890;-2.205014;1.139738
7.900;-2.210708;1.137743
7.910;-2.216091;1.136516
7.920;-2.220915;1.136482
7.930;-2.225005;1.137749
7.940;-2.228348;1.140020
7.950;-2.231143;1.142657
7.960;-2.233777;1.144879
7.970;-2.236706;1.146031
7.980;-2.240293;1.145813
