Time[s];COPx[cm];COPy[cm]
0.010;-1.694699;-0.599885
0.020;-1.736536;-0.643984
0.030;-1.779602;-0.686338
0.040;-1.824683;-0.725586
0.050;-1.872161;-0.761235
0.060;-1.921924;-0.793645
0.070;-1.973393;-0.823745
0.080;-2.025681;-0.852656
0.090;-2.077826;-0.881370
0.100;-2.129031;-0.910529
0.110;-2.178830;-0.940263
0.120;-2.227109;-0.970087
0.130;-2.273960;-0.998907
0.140;-2.319414;-1.025179
0.150;-2.363146;-1.047225
0.160;-2.404310;-1.063601
0.170;-2.441624;-1.073418
0.180;-2.473710;-1.076494
0.190;-2.499604;-1.073297
0.200;-2.519212;-1.064687
0.210;-2.533506;-1.051587
0.220;-2.544343;-1.034737
0.230;-2.553949;-1.014610
0.240;-2.564276;-0.991502
0.250;-2.576489;-0.965668
0.260;-2.590754;-0.937459
0.270;-2.606376;-0.907440
0.280;-2.622193;-0.876476
0.290;-2.637056;-0.845727
0.300;-2.650223;-0.816499
0.310;-2.661559;-0.789954
0.320;-2.671483;-0.766786
0.330;-2.680747;-0.746999
0.340;-2.690147;-0.729901
0.350;-2.700325;-0.714305
0.360;-2.711677;-0.698902
0.370;-2.724362;-0.682618
0.380;-2.738319;-0.664818
0.390;-2.753267;-0.645240
0.400;-2.768688;-0.623766
0.410;-2.783824;-0.600213
0.420;-2.797739;-0.574276
0.430;-2.809460;-0.545669
0.440;-2.818157;-0.514348
0.450;-2.823304;-0.480690
0.460;-2.824777;-0.445520
0.470;-2.822868;-0.410000
0.480;-2.818250;-0.375452
0.490;-2.811902;-0.343175
0.500;-2.804997;-0.314302
0.510;-2.798752;-0.289658
0.520;-2.794244;-0.269614
0.530;-2.792241;-0.253963
0.540;-2.793089;-0.241893
0.550;-2.796694;-0.232146
0.560;-2.802620;-0.223335
0.570;-2.810279;-0.214347
0.580;-2.819163;-0.204676
0.590;-2.829024;-0.194560
0.600;-2.839960;-0.184870
0.610;-2.852377;-0.176779
0.620;-2.866866;-0.171314
0.630;-2.884019;-0.168970
0.640;-2.904251;-0.169525
0.650;-2.927652;-0.172121
0.660;-2.953892;-0.175550
0.670;-2.982205;-0.178647
0.680;-3.011433;-0.180646
0.690;-3.040149;-0.181396
0.700;-3.066838;-0.181363
0.710;-3.090136;-0.181425
0.720;-3.109061;-0.182537
0.730;-3.123154;-0.185413
0.740;-3.132505;-0.190345
0.750;-3.137675;-0.197162
0.760;-3.139571;-0.205324
0.770;-3.139302;-0.214062
0.780;-3.138032;-0.222551
0.790;-3.136823;-0.230051
0.800;-3.136494;-0.236050
0.810;-3.137555;-0.240364
0.820;-3.140259;-0.243214
0.830;-3.144757;-0.245224
0.840;-3.151270;-0.247342
0.850;-3.160197;-0.250700
0.860;-3.172115;-0.256472
0.870;-3.187691;-0.265751
0.880;-3.207562;-0.279456
0.890;-3.232194;-0.298240
0.900;-3.261751;-0.322403
0.910;-3.295959;-0.351798
0.920;-3.333990;-0.385747
0.930;-3.374463;-0.422998
0.940;-3.415611;-0.461781
0.950;-3.455600;-0.499991
0.960;-3.492886;-0.535498
0.970;-3.526473;-0.566514
0.980;-3.555963;-0.591899
0.990;-3.581436;-0.611334
1.000;-3.603223;-0.625276
1.010;-3.621692;-0.634727
1.020;-3.637119;-0.640884
1.030;-3.649658;-0.644810
1.040;-3.659387;-0.647238
1.050;-3.666369;-0.648538
1.060;-3.670710;-0.648822
1.070;-3.672596;-0.648111
1.080;-3.672318;-0.646454
1.090;-3.670239;-0.643938
1.100;-3.666693;-0.640572
1.110;-3.661837;-0.636120
1.120;-3.655533;-0.629997
1.130;-3.647345;-0.621358
1.140;-3.636671;-0.609392
1.150;-3.622938;-0.593703
1.160;-3.605807;-0.574594
1.170;-3.585261;-0.553093
1.180;-3.561574;-0.530689
1.190;-3.535205;-0.508875
1.200;-3.506717;-0.488681
1.210;-3.476748;-0.470371
1.220;-3.445991;-0.453427
1.230;-3.415064;-0.436815
1.240;-3.384273;-0.419449
1.250;-3.353372;-0.400669
1.260;-3.321501;-0.380561
1.270;-3.287408;-0.359979
1.280;-3.249908;-0.340259
1.290;-3.208383;-0.322725
1.300;-3.163071;-0.308162
1.310;-3.114996;-0.296464
1.320;-3.065564;-0.286580
1.330;-3.016017;-0.276805
1.340;-2.966986;-0.265323
1.350;-2.918325;-0.250850
1.360;-2.869278;-0.233151
1.370;-2.818903;-0.213231
1.380;-2.766565;-0.193104
1.390;-2.712301;-0.175197
1.400;-2.656931;-0.161616
1.410;-2.601904;-0.153562
1.420;-2.548973;-0.151065
1.430;-2.499831;-0.153106
1.440;-2.455835;-0.157986
1.450;-2.417858;-0.163803
1.460;-2.386310;-0.168873
1.470;-2.361275;-0.172003
1.480;-2.342707;-0.172604
1.490;-2.330592;-0.170666
1.500;-2.324981;-0.166654
1.510;-2.325904;-0.161370
1.520;-2.333180;-0.155799
1.530;-2.346262;-0.150958
1.540;-2.364205;-0.147773
1.550;-2.385804;-0.146986
1.560;-2.409827;-0.149119
1.570;-2.435249;-0.154461
1.580;-2.461396;-0.163060
1.590;-2.487966;-0.174710
1.600;-2.514951;-0.188941
1.610;-2.542525;-0.205020
1.620;-2.570898;-0.221992
1.630;-2.600168;-0.238776
1.640;-2.630192;-0.254321
1.650;-2.660503;-0.267804
1.660;-2.690316;-0.278804
1.670;-2.718619;-0.287383
1.680;-2.744335;-0.294025
1.690;-2.766515;-0.299478
1.700;-2.784508;-0.304571
1.710;-2.798088;-0.310086
1.720;-2.807473;-0.316693
1.730;-2.813234;-0.324877
1.740;-2.816119;-0.334852
1.750;-2.816864;-0.346482
1.760;-2.816052;-0.359278
1.770;-2.814077;-0.372494
1.780;-2.811138;-0.385308
1.790;-2.807241;-0.397019
1.800;-2.802170;-0.407222
1.810;-2.795492;-0.415870
1.820;-2.786630;-0.423227
1.830;-2.775021;-0.429690
1.840;-2.760306;-0.435566
1.850;-2.742458;-0.440904
1.860;-2.721816;-0.445453
1.870;-2.698992;-0.448755
1.880;-2.674697;-0.450330
1.890;-2.649548;-0.449887
1.900;-2.623920;-0.447466
1.910;-2.597891;-0.443475
1.920;-2.571332;-0.438609
1.930;-2.544107;-0.433702
1.940;-2.516298;-0.429537
1.950;-2.488321;-0.426665
1.960;-2.460856;-0.425296
1.970;-2.434600;-0.425253
1.980;-2.409982;-0.426030
1.990;-2.386992;-0.426870
2.000;-2.365218;-0.426865
2.010;-2.344038;-0.425051
2.020;-2.322863;-0.420522
2.030;-2.301286;-0.412570
2.040;-2.279112;-0.400823
2.050;-2.256269;-0.385357
2.060;-2.232681;-0.366716
2.070;-2.208206;-0.345837
2.080;-2.182665;-0.323894
2.090;-2.155931;-0.302106
2.100;-2.128000;-0.281549
2.110;-2.099004;-0.262992
2.120;-2.069162;-0.246751
2.130;-2.038724;-0.232632
2.140;-2.007943;-0.219978
2.150;-1.977078;-0.207856
2.160;-1.946389;-0.195328
2.170;-1.916120;-0.181733
2.180;-1.886465;-0.166867
2.190;-1.857552;-0.150999
2.200;-1.829433;-0.134714
2.210;-1.802080;-0.118665
2.220;-1.775364;-0.103322
2.230;-1.749035;-0.088816
2.240;-1.722752;-0.074927
2.250;-1.696191;-0.061189
2.260;-1.669197;-0.047061
2.270;-1.641915;-0.032094
2.280;-1.614821;-0.016016
2.290;-1.588634;0.001234
2.300;-1.564150;0.019507
2.310;-1.542055;0.038441
2.320;-1.522780;0.057452
2.330;-1.506431;0.075728
2.340;-1.492816;0.092291
2.350;-1.481576;0.106147
2.360;-1.472344;0.116533
2.370;-1.464888;0.123147
2.380;-1.459146;0.126263
2.390;-1.455155;0.126646
2.400;-1.452888;0.125297
2.410;-1.452080;0.123141
2.420;-1.452132;0.120757
2.430;-1.452151;0.118235
2.440;-1.451142;0.115213
2.450;-1.448280;0.111060
2.460;-1.443121;0.105175
2.470;-1.435685;0.097290
2.480;-1.426353;0.087633
2.490;-1.415666;0.076890
2.500;-1.404136;0.065961
2.510;-1.392181;0.055596
2.520;-1.380215;0.046083
2.530;-1.368772;0.037091
2.540;-1.358553;0.027761
2.550;-1.350341;0.017000
2.560;-1.344860;0.003888
2.570;-1.342670;-0.011981
2.580;-1.344149;-0.030341
2.590;-1.349527;-0.050361
2.600;-1.358892;-0.070949
2.610;-1.372167;-0.091142
2.620;-1.389067;-0.110414
2.630;-1.409103;-0.128808
2.640;-1.431632;-0.146898
2.650;-1.455962;-0.165620
2.660;-1.481427;-0.186051
2.670;-1.507441;-0.209148
2.680;-1.533517;-0.235488
2.690;-1.559283;-0.265023
2.700;-1.584510;-0.296945
2.710;-1.609134;-0.329734
2.720;-1.633256;-0.361436
2.730;-1.657080;-0.390143
2.740;-1.680803;-0.414502
2.750;-1.704505;-0.434063
2.760;-1.728098;-0.449331
2.770;-1.751369;-0.461505
2.780;-1.774095;-0.472014
2.790;-1.796165;-0.482037
2.800;-1.817652;-0.492176
2.810;-1.838786;-0.502379
2.820;-1.859810;-0.512123
2.830;-1.880803;-0.520739
2.840;-1.901534;-0.527751
2.850;-1.921449;-0.533069
2.860;-1.939813;-0.537014
2.870;-1.955952;-0.540198
2.880;-1.969523;-0.543349
2.890;-1.980666;-0.547168
2.900;-1.989992;-0.552258
2.910;-1.998381;-0.559089
2.920;-2.006668;-0.567960
2.930;-2.015332;-0.578940
2.940;-2.024281;-0.591833
2.950;-2.032853;-0.606214
2.960;-2.040020;-0.621544
2.970;-2.044764;-0.637318
2.980;-2.046469;-0.653201
2.990;-2.045200;-0.669115
3.000;-2.041765;-0.685259
3.010;-2.037533;-0.702053
3.020;-2.034079;-0.720004
3.030;-2.032770;-0.739531
3.040;-2.034429;-0.760802
3.050;-2.039221;-0.783670
3.060;-2.046800;-0.807735
3.070;-2.056666;-0.832520
3.080;-2.068582;-0.857663
3.090;-2.082837;-0.883041
3.100;-2.100247;-0.908771
3.110;-2.121882;-0.935133
3.120;-2.148660;-0.962478
3.130;-2.180999;-0.991136
3.140;-2.218658;-1.021315
3.150;-2.260805;-1.052966
3.160;-2.306223;-1.085644
3.170;-2.353541;-1.118450
3.180;-2.401390;-1.150083
3.190;-2.448492;-1.179029
3.200;-2.493687;-1.203845
3.210;-2.535974;-1.223474
3.220;-2.574554;-1.237527
3.230;-2.608896;-1.246415
3.240;-2.638804;-1.251273
3.250;-2.664444;-1.253665
3.260;-2.686315;-1.255188
3.270;-2.705148;-1.257083
3.280;-2.721758;-1.259974
3.290;-2.736876;-1.263784
3.300;-2.750996;-1.267820
3.310;-2.764295;-1.271001
3.320;-2.776653;-1.272215
3.330;-2.787786;-1.270724
3.340;-2.797463;-1.266506
3.350;-2.805723;-1.260385
3.360;-2.813018;-1.253837
3.370;-2.820227;-1.248530
3.380;-2.828550;-1.245755
3.390;-2.839319;-1.245983
3.400;-2.853768;-1.248710
3.410;-2.872820;-1.252623
3.420;-2.896919;-1.256019
3.430;-2.925927;-1.257312
3.440;-2.959117;-1.255508
3.450;-2.995277;-1.250503
3.460;-3.032913;-1.243110
3.470;-3.070512;-1.234774
3.480;-3.106769;-1.227075
3.490;-3.140741;-1.221181
3.500;-3.171877;-1.217500
3.510;-3.199943;-1.215632
3.520;-3.224850;-1.214620
3.530;-3.246448;-1.213350
3.540;-3.264344;-1.210925
3.550;-3.277857;-1.206861
3.560;-3.286160;-1.201106
3.570;-3.288618;-1.193914
3.580;-3.285191;-1.185691
3.590;-3.276713;-1.176855
3.600;-3.264881;-1.167709
3.610;-3.251888;-1.158336
3.620;-3.239854;-1.148545
3.630;-3.230269;-1.137906
3.640;-3.223689;-1.125891
3.650;-3.219767;-1.112041
3.660;-3.217625;-1.096078
3.670;-3.216394;-1.077917
3.680;-3.215743;-1.057613
3.690;-3.216180;-1.035288
3.700;-3.219009;-1.011097
3.710;-3.225997;-0.985212
3.720;-3.238898;-0.957815
3.730;-3.259037;-0.929079
3.740;-3.287047;-0.899115
3.750;-3.322807;-0.867893
3.760;-3.365507;-0.835196
3.770;-3.413801;-0.800658
3.780;-3.465965;-0.763947
3.790;-3.520039;-0.725051
3.800;-3.573920;-0.684574
3.810;-3.625420;-0.643890
3.820;-3.672353;-0.605030
3.830;-3.712679;-0.570281
3.840;-3.744691;-0.541596
3.850;-3.767180;-0.520010
3.860;-3.779522;-0.505304
3.870;-3.781689;-0.496033
3.880;-3.774225;-0.489933
3.890;-3.758189;-0.484559
3.900;-3.735058;-0.477904
3.910;-3.706593;-0.468813
3.920;-3.674649;-0.457074
3.930;-3.640991;-0.443228
3.940;-3.607107;-0.428205
3.950;-3.574069;-0.412942
3.960;-3.542422;-0.398092
3.970;-3.512186;-0.383922
3.980;-3.482962;-0.370385
3.990;-3.454172;-0.357311
4.000;-3.425345;-0.344619
4.010;-3.396343;-0.332464
4.020;-3.367424;-0.321280
4.030;-3.339125;-0.311685
4.040;-3.312011;-0.304319
4.050;-3.286464;-0.299651
4.060;-3.262608;-0.297860
4.070;-3.240391;-0.298822
4.080;-3.219720;-0.302197
4.090;-3.200545;-0.307561
4.100;-3.182845;-0.314530
4.110;-3.166531;-0.322855
4.120;-3.151338;-0.332467
4.130;-3.136786;-0.343465
4.140;-3.122254;-0.356020
4.150;-3.107145;-0.370202
4.160;-3.091057;-0.385826
4.170;-3.073856;-0.402397
4.180;-3.055619;-0.419201
4.190;-3.036480;-0.435521
4.200;-3.016482;-0.450883
4.210;-2.995524;-0.465240
4.220;-2.973446;-0.478971
4.230;-2.950193;-0.492705
4.240;-2.925949;-0.507023
4.250;-2.901142;-0.522173
4.260;-2.876308;-0.537906
4.270;-2.851869;-0.553500
4.280;-2.827977;-0.567977
4.290;-2.804493;-0.580433
4.300;-2.781095;-0.590339
4.310;-2.757458;-0.597697
4.320;-2.733404;-0.602986
4.330;-2.708997;-0.606963
4.340;-2.684547;-0.610376
4.350;-2.660545;-0.613706
4.360;-2.637543;-0.616993
4.370;-2.615998;-0.619822
4.380;-2.596125;-0.621496
4.390;-2.577810;-0.621348
4.400;-2.560660;-0.619084
4.410;-2.544180;-0.615002
4.420;-2.528019;-0.609954
4.430;-2.512180;-0.605081
4.440;-2.497108;-0.601398
4.450;-2.483611;-0.599421
4.460;-2.472654;-0.598998
4.470;-2.465101;-0.599391
4.480;-2.461512;-0.599581
4.490;-2.462046;-0.598682
4.500;-2.466506;-0.596280
4.510;-2.474434;-0.592544
4.520;-2.485211;-0.588056
4.530;-2.498114;-0.583449
4.540;-2.512352;-0.579052
4.550;-2.527129;-0.574752
4.560;-2.541765;-0.570115
4.570;-2.555838;-0.564675
4.580;-2.569318;-0.558194
4.590;-2.582616;-0.550752
4.600;-2.596504;-0.542632
4.610;-2.611909;-0.534100
4.620;-2.629643;-0.525236
4.630;-2.650151;-0.515913
4.640;-2.673370;-0.505934
4.650;-2.698713;-0.495228
4.660;-2.725169;-0.483965
4.670;-2.751448;-0.472500
4.680;-2.776177;-0.461176
4.690;-2.798129;-0.450093
4.700;-2.816453;-0.438967
4.710;-2.830854;-0.427160
4.720;-2.841644;-0.413849
4.730;-2.849618;-0.398309
4.740;-2.855789;-0.380167
4.750;-2.861096;-0.359550
4.760;-2.866183;-0.337071
4.770;-2.871354;-0.313707
4.780;-2.876666;-0.290612
4.790;-2.882112;-0.268896
4.800;-2.887787;-0.249390
4.810;-2.893988;-0.232426
4.820;-2.901183;-0.217741
4.830;-2.909893;-0.204564
4.840;-2.920537;-0.191898
4.850;-2.933336;-0.178869
4.860;-2.948340;-0.164985
4.870;-2.965541;-0.150216
4.880;-2.984965;-0.134857
4.890;-3.006650;-0.119292
4.900;-3.030495;-0.103754
4.910;-3.056097;-0.088217
4.920;-3.082699;-0.072433
4.930;-3.109317;-0.056088
4.940;-3.134976;-0.038992
4.950;-3.158908;-0.021223
4.960;-3.180608;-0.003170
4.970;-3.199798;0.014536
4.980;-3.216376;0.031198
4.990;-3.230451;0.046308
5.000;-3.242429;0.059787
5.010;-3.253073;0.072099
5.020;-3.263453;0.084172
5.030;-3.274772;0.097146
5.040;-3.288093;0.112056
5.050;-3.304072;0.129558
5.060;-3.322769;0.149771
5.070;-3.343622;0.172241
5.080;-3.365567;0.196018
5.090;-3.387257;0.219798
5.100;-3.407316;0.242125
5.110;-3.424551;0.261624
5.120;-3.438098;0.277237
5.130;-3.447507;0.288410
5.140;-3.452767;0.295154
5.150;-3.454305;0.297972
5.160;-3.452914;0.297665
5.170;-3.449606;0.295090
5.180;-3.445397;0.290945
5.190;-3.441057;0.285654
5.200;-3.436904;0.279335
5.210;-3.432742;0.271851
5.220;-3.427983;0.262877
5.230;-3.421906;0.251974
5.240;-3.413940;0.238675
5.250;-3.403845;0.222580
5.260;-3.391741;0.203461
5.270;-3.378018;0.181327
5.280;-3.363212;0.156430
5.290;-3.347907;0.129232
5.300;-3.332689;0.100341
5.310;-3.318157;0.070454
5.320;-3.304920;0.040283
5.330;-3.293581;0.010440
5.340;-3.284664;-0.018714
5.350;-3.278523;-0.047167
5.360;-3.275259;-0.075219
5.370;-3.274684;-0.103283
5.380;-3.276379;-0.131605
5.390;-3.279807;-0.160037
5.400;-3.284458;-0.187974
5.410;-3.289934;-0.214445
5.420;-3.295984;-0.238300
5.430;-3.302512;-0.258418
5.440;-3.309606;-0.273903
5.450;-3.317527;-0.284272
5.460;-3.326626;-0.289598
5.470;-3.337176;-0.290557
5.480;-3.349179;-0.288340
5.490;-3.362267;-0.284430
5.500;-3.375732;-0.280295
5.510;-3.388683;-0.277081
5.520;-3.400281;-0.275416
5.530;-3.409960;-0.275381
5.540;-3.417579;-0.276651
5.550;-3.423436;-0.278726
5.560;-3.428137;-0.281141
5.570;-3.432370;-0.283580
5.580;-3.436674;-0.285883
5.590;-3.441310;-0.287988
5.600;-3.446249;-0.289888
5.610;-3.451283;-0.291612
5.620;-3.456175;-0.293245
5.630;-3.460809;-0.294918
5.640;-3.465297;-0.296760
5.650;-3.470038;-0.298826
5.660;-3.475671;-0.301061
5.670;-3.482945;-0.303322
5.680;-3.492482;-0.305472
5.690;-3.504516;-0.307490
5.700;-3.518693;-0.309532
5.710;-3.534034;-0.311905
5.720;-3.549110;-0.314983
5.730;-3.562370;-0.319097
5.740;-3.572520;-0.324471
5.750;-3.578825;-0.331195
5.760;-3.581253;-0.339248
5.770;-3.580406;-0.348536
5.780;-3.577300;-0.358923
5.790;-3.573070;-0.370261
5.800;-3.568694;-0.382410
5.810;-3.564795;-0.395262
5.820;-3.561541;-0.408756
5.830;-3.558657;-0.422877
5.840;-3.555546;-0.437653
5.850;-3.551494;-0.453115
5.860;-3.545910;-0.469260
5.870;-3.538520;-0.486012
5.880;-3.529455;-0.503202
5.890;-3.519199;-0.520565
5.900;-3.508431;-0.537790
5.910;-3.497847;-0.554624
5.920;-3.488024;-0.570993
5.930;-3.479370;-0.587046
5.940;-3.472105;-0.603066
5.950;-3.466277;-0.619273
5.960;-3.461781;-0.635621
5.970;-3.458383;-0.651731
5.980;-3.455746;-0.666987
5.990;-3.453462;-0.680749
6.000;-3.451117;-0.692563
6.010;-3.448391;-0.702249
6.020;-3.445172;-0.709885
6.030;-3.441603;-0.715711
6.040;-3.438034;-0.720050
6.050;-3.434892;-0.723242
6.060;-3.432538;-0.725602
6.070;-3.431195;-0.727380
6.080;-3.430949;-0.728738
6.090;-3.431803;-0.729724
6.100;-3.433694;-0.730257
6.110;-3.436454;-0.730123
6.120;-3.439774;-0.729028
6.130;-3.443235;-0.726698
6.140;-3.446441;-0.722999
6.150;-3.449185;-0.718013
6.160;-3.451564;-0.712020
6.170;-3.453962;-0.705345
6.180;-3.456929;-0.698126
6.190;-3.461019;-0.690126
6.200;-3.466649;-0.680730
6.210;-3.474023;-0.669186
6.220;-3.483123;-0.654978
6.230;-3.493731;-0.638154
6.240;-3.505457;-0.619418
6.250;-3.517776;-0.599957
6.260;-3.530064;-0.581074
6.270;-3.541654;-0.563799
6.280;-3.551912;-0.548606
6.290;-3.560310;-0.535341
6.300;-3.566524;-0.523369
6.310;-3.570503;-0.511877
6.320;-3.572506;-0.500192
6.330;-3.573063;-0.487998
6.340;-3.572851;-0.475340
6.350;-3.572508;-0.462436
6.360;-3.572443;-0.449420
6.370;-3.572748;-0.436175
6.380;-3.573259;-0.422332
6.390;-3.573725;-0.407444
6.400;-3.573970;-0.391229
6.410;-3.573973;-0.373740
6.420;-3.573843;-0.355408
6.430;-3.573768;-0.336939
6.440;-3.573983;-0.319135
6.450;-3.574785;-0.302685
6.460;-3.576554;-0.287992
6.470;-3.579738;-0.275072
6.480;-3.584773;-0.263583
6.490;-3.591944;-0.252987
6.500;-3.601227;-0.242807
6.510;-3.612186;-0.232843
6.520;-3.623960;-0.223260
6.530;-3.635369;-0.214485
6.540;-3.645124;-0.206977
6.550;-3.652116;-0.200986
6.560;-3.655690;-0.196428
6.570;-3.655811;-0.192915
6.580;-3.653057;-0.189918
6.590;-3.648416;-0.186967
6.600;-3.642992;-0.183805
6.610;-3.637717;-0.180407
6.620;-3.633169;-0.176865
6.630;-3.629531;-0.173201
6.640;-3.626686;-0.169244
6.650;-3.624394;-0.164678
6.660;-3.622480;-0.159274
6.670;-3.620961;-0.153174
6.680;-3.620063;-0.147024
6.690;-3.620141;-0.141827
6.700;-3.621580;-0.138565
6.710;-3.624713;-0.137789
6.720;-3.629766;-0.139389
6.730;-3.636842;-0.142667
6.740;-3.645924;-0.146623
6.750;-3.656915;-0.150328
6.760;-3.669693;-0.153206
6.770;-3.684147;-0.155146
6.780;-3.700155;-0.156446
6.790;-3.717542;-0.157647
6.800;-3.736052;-0.159322
6.810;-3.755372;-0.161850
6.820;-3.775197;-0.165231
6.830;-3.795278;-0.169003
6.840;-3.815458;-0.172319
6.850;-3.835644;-0.174209
6.860;-3.855741;-0.173939
6.870;-3.875546;-0.171330
6.880;-3.894667;-0.166911
6.890;-3.912470;-0.161830
6.900;-3.928105;-0.157560
6.910;-3.940612;-0.155470
6.920;-3.949122;-0.156408
6.930;-3.953073;-0.160446
6.940;-3.952390;-0.166919
6.950;-3.947526;-0.174737
6.960;-3.939349;-0.182842
6.970;-3.928921;-0.190575
6.980;-3.917270;-0.197797
6.990;-3.905252;-0.204753
7.000;-3.893515;-0.211798
7.010;-3.882518;-0.219174
7.020;-3.872573;-0.226952
7.030;-3.863843;-0.235119
7.040;-3.856305;-0.243699
7.050;-3.849743;-0.252801
7.060;-3.843787;-0.262569
7.070;-3.838040;-0.273109
7.080;-3.832229;-0.284476
7.090;-3.826344;-0.296757
7.100;-3.820693;-0.310192
7.110;-3.815853;-0.325238
7.120;-3.812512;-0.342502
7.130;-3.811260;-0.362548
7.140;-3.812424;-0.385677
7.150;-3.816019;-0.411788
7.160;-3.821818;-0.440394
7.170;-3.829467;-0.470771
7.180;-3.838562;-0.502178
7.190;-3.848633;-0.534058
7.200;-3.859083;-0.566136
7.210;-3.869171;-0.598375
7.220;-3.878122;-0.630833
7.230;-3.885327;-0.663509
7.240;-3.890544;-0.696271
7.250;-3.893949;-0.728897
7.260;-3.896022;-0.761190
7.270;-3.897326;-0.793112
7.280;-3.898328;-0.824853
7.290;-3.899321;-0.856778
7.300;-3.900462;-0.889254
7.310;-3.901835;-0.922431
7.320;-3.903486;-0.956077
7.330;-3.905405;-0.989552
7.340;-3.907479;-1.021913
7.350;-3.909457;-1.052100
7.360;-3.910972;-1.079120
7.370;-3.911622;-1.102197
7.380;-3.911085;-1.120845
7.390;-3.909219;-1.134870
7.400;-3.906090;-1.144339
7.410;-3.901928;-1.149513
7.420;-3.897008;-1.150791
7.430;-3.891496;-1.148627
7.440;-3.885298;-1.143419
7.450;-3.877975;-1.135362
7.460;-3.868766;-1.124330
7.470;-3.856744;-1.109891
7.480;-3.841066;-1.091480
7.490;-3.821208;-1.068693
7.500;-3.797089;-1.041564
7.510;-3.769029;-1.010668
7.520;-3.737561;-0.976998
7.530;-3.703219;-0.941676
7.540;-3.666397;-0.905629
7.550;-3.627345;-0.869370
7.560;-3.586266;-0.832989
7.570;-3.543470;-0.796320
7.580;-3.499480;-0.759213
7.590;-3.455030;-0.721761
7.600;-3.410915;-0.684421
7.610;-3.367763;-0.647980
7.620;-3.325860;-0.613402
7.630;-3.285110;-0.581589
7.640;-3.245170;-0.553137
7.650;-3.205711;-0.528174
7.660;-3.166722;-0.506334
7.670;-3.128735;-0.486863
7.680;-3.092875;-0.468834
7.690;-3.060663;-0.451396
7.700;-3.033614;-0.433980
