Time[s];COPx[cm];COPy[cm]
0.010;0.594990;-1.186091
0.020;0.616858;-1.208174
0.030;0.636565;-1.230976
0.040;0.652135;-1.255008
0.050;0.662012;-1.280537
0.060;0.665198;-1.307412
0.070;0.661331;-1.334934
0.080;0.650667;-1.361863
0.090;0.633992;-1.386614
0.100;0.612454;-1.407599
0.110;0.587335;-1.423601
0.120;0.559835;-1.434065
0.130;0.530957;-1.439204
0.140;0.501534;-1.439926
0.150;0.472377;-1.437611
0.160;0.444445;-1.433822
0.170;0.418903;-1.430019
0.180;0.396987;-1.427317
0.190;0.379712;-1.426341
0.200;0.367557;-1.427207
0.210;0.360259;-1.429633
0.220;0.356821;-1.433154
0.230;0.355716;-1.437334
0.240;0.355232;-1.441935
0.250;0.353868;-1.447006
0.260;0.350677;-1.452921
0.270;0.345480;-1.460343
0.280;0.338910;-1.470107
0.290;0.332252;-1.483014
0.300;0.327110;-1.499599
0.310;0.324972;-1.519962
0.320;0.326804;-1.543734
0.330;0.332781;-1.570156
0.340;0.342249;-1.598253
0.350;0.353924;-1.627010
0.360;0.366255;-1.655507
0.370;0.377848;-1.682956
0.380;0.387781;-1.708663
0.390;0.395754;-1.731969
0.400;0.402024;-1.752235
0.410;0.407164;-1.768914
0.420;0.411720;-1.781696
0.430;0.415916;-1.790651
0.440;0.419543;-1.796290
0.450;0.422093;-1.799478
0.460;0.423080;-1.801236
0.470;0.422428;-1.802464
0.480;0.420801;-1.803689
0.490;0.419736;-1.804895
0.500;0.421467;-1.805523
0.510;0.428424;-1.804667
0.520;0.442552;-1.801476
0.530;0.464713;-1.795607
0.540;0.494425;-1.787537
0.550;0.530049;-1.778548
0.560;0.569313;-1.770364
0.570;0.609950;-1.764624
0.580;0.650183;-1.762407
0.590;0.688919;-1.763992
0.600;0.725636;-1.768855
0.610;0.760087;-1.775878
0.620;0.791972;-1.783650
0.630;0.820707;-1.790785
0.640;0.845376;-1.796179
0.650;0.864856;-1.799128
0.660;0.878075;-1.799322
0.670;0.884280;-1.796740
0.680;0.883238;-1.791558
0.690;0.875280;-1.784094
0.700;0.861209;-1.774780
0.710;0.842112;-1.764137
0.720;0.819131;-1.752699
0.730;0.793254;-1.740895
0.740;0.765165;-1.728927
0.750;0.735193;-1.716708
0.760;0.703355;-1.703889
0.770;0.669510;-1.689946
0.780;0.633560;-1.674309
0.790;0.595625;-1.656483
0.800;0.556128;-1.636138
0.810;0.515751;-1.613161
0.820;0.475321;-1.587678
0.830;0.435667;-1.560064
0.840;0.397525;-1.530945
0.850;0.361522;-1.501145
0.860;0.328215;-1.471561
0.870;0.298175;-1.442987
0.880;0.272037;-1.415928
0.890;0.250496;-1.390461
0.900;0.234211;-1.366158
0.910;0.223662;-1.342142
0.920;0.218989;-1.317263
0.930;0.219904;-1.290380
0.940;0.225695;-1.260625
0.950;0.235350;-1.227573
0.960;0.247764;-1.191274
0.970;0.261941;-1.152170
0.980;0.277148;-1.110971
0.990;0.292970;-1.068530
1.000;0.309264;-1.025737
1.010;0.326044;-0.983449
1.020;0.343351;-0.942443
1.030;0.361151;-0.903398
1.040;0.379290;-0.866860
1.050;0.397493;-0.833226
1.060;0.415377;-0.802728
1.070;0.432492;-0.775382
1.080;0.448385;-0.750892
1.090;0.462717;-0.728533
1.100;0.475397;-0.707118
1.110;0.486695;-0.685127
1.120;0.497315;-0.661041
1.130;0.508368;-0.633780
1.140;0.521240;-0.603105
1.150;0.537330;-0.569754
1.160;0.557717;-0.535258
1.170;0.582865;-0.501476
1.180;0.612465;-0.470014
1.190;0.645487;-0.441746
1.200;0.680404;-0.416613
1.210;0.715520;-0.393752
1.220;0.749291;-0.371895
1.230;0.780513;-0.349849
1.240;0.808352;-0.326891
1.250;0.832250;-0.302941
1.260;0.851799;-0.278504
1.270;0.866696;-0.254434
1.280;0.876785;-0.231650
1.290;0.882155;-0.210922
1.300;0.883202;-0.192788
1.310;0.880607;-0.177556
1.320;0.875212;-0.165343
1.330;0.867842;-0.156095
1.340;0.859117;-0.149607
1.350;0.849339;-0.145565
1.360;0.838509;-0.143615
1.370;0.826420;-0.143425
1.380;0.812809;-0.144711
1.390;0.797465;-0.147226
1.400;0.780328;-0.150743
1.410;0.761539;-0.155051
1.420;0.741464;-0.159964
1.430;0.720652;-0.165349
1.440;0.699725;-0.171126
1.450;0.679251;-0.177216
1.460;0.659625;-0.183449
1.470;0.641023;-0.189478
1.480;0.623435;-0.194758
1.490;0.606779;-0.198626
1.500;0.591035;-0.200461
1.510;0.576339;-0.199860
1.520;0.562975;-0.196747
1.530;0.551264;-0.191360
1.540;0.541393;-0.184152
1.550;0.533248;-0.175686
1.560;0.526363;-0.166580
1.570;0.520011;-0.157496
1.580;0.513415;-0.149102
1.590;0.505950;-0.141983
1.600;0.497275;-0.136495
1.610;0.487330;-0.132665
1.620;0.476232;-0.130188
1.630;0.464110;-0.128549
1.640;0.450924;-0.127194
1.650;0.436372;-0.125723
1.660;0.419944;-0.124042
1.670;0.401126;-0.122429
1.680;0.379649;-0.121505
1.690;0.355638;-0.122093
1.700;0.329584;-0.125036
1.710;0.302160;-0.130982
1.720;0.274033;-0.140171
1.730;0.245744;-0.152258
1.740;0.217718;-0.166236
1.750;0.190326;-0.180540
1.760;0.163925;-0.193336
1.770;0.138824;-0.202931
1.780;0.115192;-0.208181
1.790;0.093004;-0.208758
1.800;0.072104;-0.205193
1.810;0.052372;-0.198717
1.820;0.033892;-0.190970
1.830;0.017029;-0.183674
1.840;0.002393;-0.178349
1.850;-0.009267;-0.176110
1.860;-0.017191;-0.177572
1.870;-0.020757;-0.182843
1.880;-0.019611;-0.191576
1.890;-0.013748;-0.203062
1.900;-0.003488;-0.216364
1.910;0.010614;-0.230495
1.920;0.027859;-0.244617
1.930;0.047466;-0.258210
1.940;0.068592;-0.271134
1.950;0.090356;-0.283563
1.960;0.111892;-0.295835
1.970;0.132426;-0.308290
1.980;0.151322;-0.321173
1.990;0.168081;-0.334582
2.000;0.182288;-0.348463
2.010;0.193572;-0.362653
2.020;0.201616;-0.376957
2.030;0.206221;-0.391262
2.040;0.207373;-0.405641
2.050;0.205265;-0.420396
2.060;0.200253;-0.435992
2.070;0.192751;-0.452868
2.080;0.183129;-0.471203
2.090;0.171641;-0.490753
2.100;0.158409;-0.510874
2.110;0.143446;-0.530759
2.120;0.126703;-0.549789
2.130;0.108133;-0.567876
2.140;0.087748;-0.585637
2.150;0.065665;-0.604343
2.160;0.042106;-0.625625
2.170;0.017386;-0.651017
2.180;-0.008101;-0.681472
2.190;-0.033869;-0.717000
2.200;-0.059355;-0.756572
2.210;-0.083989;-0.798334
2.220;-0.107331;-0.840054
2.230;-0.129198;-0.879632
2.240;-0.149718;-0.915518
2.250;-0.169236;-0.946929
2.260;-0.188076;-0.973845
2.270;-0.206251;-0.996813
2.280;-0.223245;-1.016640
2.290;-0.238009;-1.034054
2.300;-0.249209;-1.049432
2.310;-0.255658;-1.062696
2.320;-0.256723;-1.073422
2.330;-0.252503;-1.081118
2.340;-0.243703;-1.085568
2.350;-0.231293;-1.087052
2.360;-0.216147;-1.086317
2.370;-0.198851;-1.084340
2.380;-0.179726;-1.081994
2.390;-0.159007;-1.079814
2.400;-0.137053;-1.077931
2.410;-0.114495;-1.076177
2.420;-0.092287;-1.074291
2.430;-0.071631;-1.072115
2.440;-0.053781;-1.069711
2.450;-0.039746;-1.067346
2.460;-0.029999;-1.065351
2.470;-0.024305;-1.063917
2.480;-0.021757;-1.062970
2.490;-0.021026;-1.062188
2.500;-0.020704;-1.061171
2.510;-0.019636;-1.059664
2.520;-0.017147;-1.057702
2.530;-0.013118;-1.055631
2.540;-0.007943;-1.054021
2.550;-0.002376;-1.053528
2.560;0.002682;-1.054766
2.570;0.006388;-1.058223
2.580;0.008141;-1.064184
2.590;0.007660;-1.072673
2.600;0.004975;-1.083423
2.610;0.000342;-1.095920
2.620;-0.005839;-1.109500
2.630;-0.013054;-1.123489
2.640;-0.020640;-1.137299
2.650;-0.027719;-1.150477
2.660;-0.033187;-1.162690
2.670;-0.035793;-1.173671
2.680;-0.034328;-1.183159
2.690;-0.027875;-1.190845
2.700;-0.016044;-1.196364
2.710;0.000897;-1.199318
2.720;0.022043;-1.199321
2.730;0.046031;-1.196050
2.740;0.071308;-1.189303
2.750;0.096409;-1.179068
2.760;0.120186;-1.165638
2.770;0.141936;-1.149728
2.780;0.161417;-1.132499
2.790;0.178763;-1.115404
2.800;0.194317;-1.099884
2.810;0.208440;-1.086982
2.820;0.221322;-1.077057
2.830;0.232860;-1.069705
2.840;0.242624;-1.063954
2.850;0.249958;-1.058667
2.860;0.254153;-1.052969
2.870;0.254663;-1.046521
2.880;0.251259;-1.039538
2.890;0.244082;-1.032598
2.900;0.233602;-1.026401
2.910;0.220510;-1.021587
2.920;0.205593;-1.018633
2.930;0.189612;-1.017779
2.940;0.173226;-1.018929
2.950;0.156965;-1.021539
2.960;0.141247;-1.024589
2.970;0.126422;-1.026669
2.980;0.112802;-1.026188
2.990;0.100676;-1.021613
3.000;0.090312;-1.011665
3.010;0.081948;-0.995428
3.020;0.075785;-0.972379
3.030;0.071940;-0.942379
3.040;0.070399;-0.905651
3.050;0.070974;-0.862757
3.060;0.073292;-0.814550
3.070;0.076822;-0.762106
3.080;0.080918;-0.706658
3.090;0.084914;-0.649561
3.100;0.088236;-0.592299
3.110;0.090524;-0.536471
3.120;0.091683;-0.483717
3.130;0.091847;-0.435571
3.140;0.091258;-0.393253
3.150;0.090157;-0.357474
3.160;0.088751;-0.328333
3.170;0.087271;-0.305323
3.180;0.086068;-0.287475
3.190;0.085645;-0.273600
3.200;0.086583;-0.262548
3.210;0.089357;-0.253430
3.220;0.094135;-0.245730
3.230;0.100649;-0.239305
3.240;0.108206;-0.234261
3.250;0.115824;-0.230748
3.260;0.122430;-0.228742
3.270;0.127076;-0.227920
3.280;0.129117;-0.227658
3.290;0.128316;-0.227185
3.300;0.124856;-0.225810
3.310;0.119243;-0.223108
3.320;0.112151;-0.218969
3.330;0.104212;-0.213473
3.340;0.095831;-0.206684
3.350;0.087075;-0.198451
3.360;0.077692;-0.188334
3.370;0.067288;-0.175670
3.380;0.055567;-0.159776
3.390;0.042543;-0.140247
3.400;0.028595;-0.117233
3.410;0.014391;-0.091584
3.420;0.000694;-0.064747
3.430;-0.011851;-0.038450
3.440;-0.022892;-0.014276
3.450;-0.032457;0.006694
3.460;-0.040907;0.024024
3.470;-0.048786;0.037794
3.480;-0.056620;0.048312
3.490;-0.064732;0.055817
3.500;-0.073139;0.060333
3.510;-0.081525;0.061729
3.520;-0.089311;0.059943
3.530;-0.095743;0.055235
3.540;-0.099996;0.048333
3.550;-0.101252;0.040375
3.560;-0.098772;0.032681
3.570;-0.091976;0.026423
3.580;-0.080548;0.022327
3.590;-0.064542;0.020499
3.600;-0.044461;0.020426
3.610;-0.021237;0.021127
3.620;0.003908;0.021427
3.630;0.029665;0.020245
3.640;0.054841;0.016838
3.650;0.078473;0.010940
3.660;0.099852;0.002747
3.670;0.118444;-0.007253
3.680;0.133794;-0.018559
3.690;0.145464;-0.030907
3.700;0.153065;-0.044414
3.710;0.156360;-0.059543
3.720;0.155366;-0.076951
3.730;0.150424;-0.097311
3.740;0.142178;-0.121166
3.750;0.131477;-0.148839
3.760;0.119184;-0.180351
3.770;0.105945;-0.215310
3.780;0.091990;-0.252844
3.790;0.077071;-0.291643
3.800;0.060573;-0.330177
3.810;0.041769;-0.367047
3.820;0.020113;-0.401369
3.830;-0.004550;-0.433027
3.840;-0.031941;-0.462665
3.850;-0.061461;-0.491402
3.860;-0.092379;-0.520396
3.870;-0.123988;-0.550431
3.880;-0.155653;-0.581695
3.890;-0.186776;-0.613798
3.900;-0.216701;-0.645963
3.910;-0.244668;-0.677296
3.920;-0.269860;-0.707007
3.930;-0.291577;-0.734562
3.940;-0.309469;-0.759734
3.950;-0.323717;-0.782603
3.960;-0.335049;-0.803475
3.970;-0.344567;-0.822743
3.980;-0.353455;-0.840724
3.990;-0.362665;-0.857526
4.000;-0.372700;-0.873036
4.010;-0.383544;-0.887049
4.020;-0.394769;-0.899472
4.030;-0.405773;-0.910502
4.040;-0.416039;-0.920617
4.050;-0.425331;-0.930339
4.060;-0.433752;-0.939827
4.070;-0.441693;-0.948481
4.080;-0.449716;-0.954747
4.090;-0.458445;-0.956253
4.100;-0.468525;-0.950290
4.110;-0.480602;-0.934552
4.120;-0.495281;-0.907891
4.130;-0.513010;-0.870784
4.140;-0.533912;-0.825295
4.150;-0.557648;-0.774530
4.160;-0.583385;-0.721817
4.170;-0.609903;-0.669928
4.180;-0.635814;-0.620585
4.190;-0.659857;-0.574374
4.200;-0.681164;-0.531036
4.210;-0.699431;-0.489975
4.220;-0.714932;-0.450782
4.230;-0.728360;-0.413557
4.240;-0.740571;-0.378957
4.250;-0.752332;-0.347981
4.260;-0.764166;-0.321630
4.270;-0.776352;-0.300566
4.280;-0.789029;-0.284917
4.290;-0.802305;-0.274270
4.300;-0.816316;-0.267844
4.310;-0.831196;-0.264723
4.320;-0.847010;-0.264044
4.330;-0.863713;-0.265074
4.340;-0.881159;-0.267164
4.350;-0.899135;-0.269668
4.360;-0.917385;-0.271882
4.370;-0.935579;-0.273079
4.380;-0.953238;-0.272620
4.390;-0.969660;-0.270087
4.400;-0.983939;-0.265382
4.410;-0.995115;-0.258749
4.420;-1.002419;-0.250676
4.430;-1.005505;-0.241716
4.440;-1.004503;-0.232251
4.450;-0.999868;-0.222369
4.460;-0.992106;-0.211923
4.470;-0.981530;-0.200754
4.480;-0.968152;-0.188970
4.490;-0.951739;-0.177123
4.500;-0.931965;-0.166229
4.510;-0.908602;-0.157644
4.520;-0.881672;-0.152887
4.530;-0.851533;-0.153457
4.540;-0.818866;-0.160677
4.550;-0.784584;-0.175531
4.560;-0.749693;-0.198465
4.570;-0.715148;-0.229232
4.580;-0.681728;-0.266876
4.590;-0.649970;-0.309953
4.600;-0.620181;-0.356920
4.610;-0.592518;-0.406552
4.620;-0.567111;-0.458177
4.630;-0.544176;-0.511620
4.640;-0.524050;-0.566864
4.650;-0.507150;-0.623565
4.660;-0.493852;-0.680625
4.670;-0.484321;-0.736021
4.680;-0.478318;-0.786972
4.690;-0.475049;-0.830392
4.700;-0.473117;-0.863526
4.710;-0.470652;-0.884602
4.720;-0.465629;-0.893303
4.730;-0.456316;-0.890921
4.740;-0.441683;-0.880118
4.750;-0.421617;-0.864386
4.760;-0.396862;-0.847403
4.770;-0.368722;-0.832454
4.780;-0.338690;-0.822030
4.790;-0.308139;-0.817618
4.800;-0.278155;-0.819686
4.810;-0.249524;-0.827867
4.820;-0.222789;-0.841299
4.830;-0.198335;-0.859063
4.840;-0.176458;-0.880601
4.850;-0.157414;-0.905976
4.860;-0.141442;-0.935910
4.870;-0.128745;-0.971556
4.880;-0.119438;-1.014076
4.890;-0.113482;-1.064156
4.900;-0.110674;-1.121611
4.910;-0.110683;-1.185227
4.920;-0.113112;-1.252883
4.930;-0.117551;-1.321895
4.940;-0.123621;-1.389458
4.950;-0.131023;-1.453041
4.960;-0.139539;-1.510663
4.970;-0.148962;-1.561018
4.980;-0.158962;-1.603469
4.990;-0.168994;-1.637942
5.000;-0.178337;-1.664771
5.010;-0.186300;-1.684544
5.020;-0.192492;-1.697987
5.030;-0.197008;-1.705895
5.040;-0.200402;-1.709072
5.050;-0.203449;-1.708272
5.060;-0.206806;-1.704121
5.070;-0.210716;-1.697062
5.080;-0.214894;-1.687339
5.090;-0.218612;-1.675025
5.100;-0.220926;-1.660059
5.110;-0.220947;-1.642291
5.120;-0.218052;-1.621596
5.130;-0.211986;-1.598053
5.140;-0.202860;-1.572143
5.150;-0.191075;-1.544820
5.160;-0.177221;-1.517398
5.170;-0.161979;-1.491282
5.180;-0.146054;-1.467700
5.190;-0.130150;-1.447525
5.200;-0.114977;-1.431217
5.210;-0.101235;-1.418826
5.220;-0.089554;-1.410035
5.230;-0.080393;-1.404221
5.240;-0.073958;-1.400538
5.250;-0.070173;-1.397973
5.260;-0.068720;-1.395369
5.270;-0.069108;-1.391440
5.280;-0.070723;-1.384808
5.290;-0.072866;-1.374092
5.300;-0.074816;-1.357999
5.310;-0.075926;-1.335403
5.320;-0.075709;-1.305375
5.330;-0.073871;-1.267155
5.340;-0.070239;-1.220106
5.350;-0.064629;-1.163686
5.360;-0.056727;-1.097511
5.370;-0.046034;-1.021527
5.380;-0.031912;-0.936260
5.390;-0.013686;-0.843046
5.400;0.009241;-0.744149
5.410;0.037340;-0.642676
5.420;0.070944;-0.542290
5.430;0.110285;-0.446772
5.440;0.155549;-0.359552
5.450;0.206894;-0.283318
5.460;0.264420;-0.219780
5.470;0.328041;-0.169612
5.480;0.397298;-0.132504
5.490;0.471172;-0.107308
5.500;0.547995;-0.092223
5.510;0.625537;-0.085082
5.520;0.701280;-0.083728
5.530;0.772796;-0.086407
5.540;0.838121;-0.092037
5.550;0.896023;-0.100208
5.560;0.946116;-0.110945
5.570;0.988812;-0.124347
5.580;1.025150;-0.140287
5.590;1.056505;-0.158256
5.600;1.084231;-0.177373
5.610;1.109323;-0.196530
5.620;1.132205;-0.214612
5.630;1.152730;-0.230737
5.640;1.170360;-0.244452
5.650;1.184434;-0.255811
5.660;1.194439;-0.265327
5.670;1.200181;-0.273764
5.680;1.201862;-0.281854
5.690;1.200055;-0.290043
5.700;1.195607;-0.298383
5.710;1.189467;-0.306599
5.720;1.182489;-0.314322
5.730;1.175245;-0.321332
5.740;1.167916;-0.327723
5.750;1.160329;-0.333854
5.760;1.152147;-0.340096
5.770;1.143172;-0.346490
5.780;1.133609;-0.352494
5.790;1.124179;-0.356984
5.800;1.115989;-0.358530
5.810;1.110218;-0.355832
5.820;1.107758;-0.348181
5.830;1.108959;-0.335778
5.840;1.113577;-0.319801
5.850;1.120876;-0.302165
5.860;1.129839;-0.285047
5.870;1.139368;-0.270350
5.880;1.148457;-0.259257
5.890;1.156284;-0.252027
5.900;1.162231;-0.248061
5.910;1.165832;-0.246185
5.920;1.166705;-0.245044
5.930;1.164503;-0.243473
5.940;1.158922;-0.240749
5.950;1.149757;-0.236686
5.960;1.136951;-0.231579
5.970;1.120611;-0.226067
5.980;1.100969;-0.220984
5.990;1.078332;-0.217211
6.000;1.053035;-0.215500
6.010;1.025399;-0.216294
6.020;0.995700;-0.219565
6.030;0.964155;-0.224762
6.040;0.930946;-0.230889
6.050;0.896297;-0.236725
6.060;0.860578;-0.241119
6.070;0.824386;-0.243279
6.080;0.788549;-0.243005
6.090;0.754058;-0.240792
6.100;0.721949;-0.237752
6.110;0.693180;-0.235316
6.120;0.668565;-0.234786
6.130;0.648751;-0.236864
6.140;0.634203;-0.241342
6.150;0.625170;-0.247098
6.160;0.621617;-0.252401
6.170;0.623155;-0.255420
6.180;0.629055;-0.254755
6.190;0.638319;-0.249799
6.200;0.649828;-0.240856
6.210;0.662485;-0.228990
6.220;0.675321;-0.215684
6.230;0.687556;-0.202423
6.240;0.698581;-0.190315
6.250;0.707910;-0.179899
6.260;0.715110;-0.171160
6.270;0.719778;-0.163739
6.280;0.721564;-0.157227
6.290;0.720215;-0.151405
6.300;0.715614;-0.146317
6.310;0.707805;-0.142191
6.320;0.697007;-0.139274
6.330;0.683627;-0.137697
6.340;0.668243;-0.137440
6.350;0.651552;-0.138387
6.360;0.634277;-0.140430
6.370;0.617056;-0.143547
6.380;0.600351;-0.147813
6.390;0.584358;-0.153360
6.400;0.568947;-0.160333
6.410;0.553623;-0.168880
6.420;0.537588;-0.179165
6.430;0.519944;-0.191386
6.440;0.499998;-0.205771
6.450;0.477568;-0.222561
6.460;0.453130;-0.241962
6.470;0.427724;-0.264077
6.480;0.402674;-0.288812
6.490;0.379226;-0.315797
6.500;0.358250;-0.344372
6.510;0.340065;-0.373676
6.520;0.324425;-0.402801
6.530;0.310624;-0.430959
6.540;0.297680;-0.457595
6.550;0.284568;-0.482402
6.560;0.270445;-0.505252
6.570;0.254818;-0.526102
6.580;0.237612;-0.544929
6.590;0.219106;-0.561732
6.600;0.199765;-0.576573
6.610;0.180043;-0.589602
6.620;0.160216;-0.601036
6.630;0.140278;-0.611089
6.640;0.119927;-0.619871
6.650;0.098627;-0.627316
6.660;0.075752;-0.633198
6.670;0.050773;-0.637245
6.680;0.023445;-0.639323
6.690;-0.006050;-0.639558
6.700;-0.037038;-0.638353
6.710;-0.068382;-0.636265
6.720;-0.098636;-0.633814
6.730;-0.126281;-0.631326
6.740;-0.150027;-0.628868
6.750;-0.169061;-0.626308
6.760;-0.183182;-0.623466
6.770;-0.192772;-0.620273
6.780;-0.198635;-0.616870
6.790;-0.201748;-0.613607
6.800;-0.203029;-0.610983
6.810;-0.203180;-0.609571
6.820;-0.202667;-0.609943
6.830;-0.201792;-0.612599
6.840;-0.200791;-0.617871
6.850;-0.199913;-0.625832
6.860;-0.199463;-0.636249
6.870;-0.199835;-0.648610
6.880;-0.201537;-0.662224
6.890;-0.205197;-0.676381
6.900;-0.211497;-0.690532
6.910;-0.221026;-0.704441
6.920;-0.234086;-0.718238
6.930;-0.250526;-0.732308
6.940;-0.269680;-0.747021
6.950;-0.290465;-0.762432
6.960;-0.311604;-0.778095
6.970;-0.331926;-0.793106
6.980;-0.350610;-0.806327
6.990;-0.367281;-0.816673
7.000;-0.381941;-0.823347
7.010;-0.394792;-0.825954
7.020;-0.406063;-0.824520
7.030;-0.415905;-0.819424
7.040;-0.424381;-0.811330
7.050;-0.431503;-0.801122
7.060;-0.437289;-0.789876
7.070;-0.441813;-0.778823
7.080;-0.445239;-0.769251
7.090;-0.447828;-0.762348
7.100;-0.449914;-0.759013
7.110;-0.451851;-0.759731
7.120;-0.453945;-0.764586
7.130;-0.456380;-0.773445
7.140;-0.459192;-0.786230
7.150;-0.462284;-0.803145
7.160;-0.465498;-0.824724
7.170;-0.468714;-0.851649
7.180;-0.471950;-0.884406
7.190;-0.475443;-0.922916
7.200;-0.479669;-0.966298
7.210;-0.485272;-1.012880
7.220;-0.492915;-1.060502
7.230;-0.503108;-1.107012
7.240;-0.516118;-1.150774
7.250;-0.531996;-1.191025
7.260;-0.550711;-1.227931
7.270;-0.572270;-1.262371
7.280;-0.596747;-1.295490
7.290;-0.624188;-1.328203
7.300;-0.654463;-1.360844
7.310;-0.687163;-1.393062
7.320;-0.721608;-1.423987
7.330;-0.756989;-1.452540
7.340;-0.792588;-1.477743
7.350;-0.827986;-1.498953
7.360;-0.863175;-1.515984
7.370;-0.898523;-1.529144
7.380;-0.934639;-1.539153
7.390;-0.972174;-1.546941
7.400;-1.011631;-1.553343
7.410;-1.053212;-1.558807
7.420;-1.096754;-1.563230
7.430;-1.141762;-1.566030
7.440;-1.187518;-1.566426
7.450;-1.233196;-1.563810
7.460;-1.277916;-1.558031
7.470;-1.320734;-1.549467
7.480;-1.360616;-1.538842
7.490;-1.396480;-1.526907
7.500;-1.427335;-1.514111
7.510;-1.452475;-1.500436
7.520;-1.471641;-1.485428
7.530;-1.485061;-1.468396
7.540;-1.493364;-1.448663
7.550;-1.497410;-1.425775
7.560;-1.498136;-1.399627
7.570;-1.496448;-1.370514
7.580;-1.493173;-1.339137
7.590;-1.489010;-1.306550
7.600;-1.484448;-1.274006
7.610;-1.479653;-1.242679
7.620;-1.474342;-1.213243
7.630;-1.467695;-1.185443
7.640;-1.458377;-1.157812
7.650;-1.444714;-1.127761
7.660;-1.425037;-1.092077
7.670;-1.398129;-1.047703
7.680;-1.363606;-0.992504
7.690;-1.322043;-0.925716
7.700;-1.274777;-0.847913
7.710;-1.223431;-0.760567
7.720;-1.169368;-0.665430
7.730;-1.113282;-0.564014
7.740;-1.055078;-0.457380
7.750;-0.994054;-0.346248
7.760;-0.929308;-0.231293
7.770;-0.860205;-0.113472
7.780;-0.786765;0.005778
7.790;-0.709811;0.124520
7.800;-0.630888;0.240477
7.810;-0.552010;0.351323
7.820;-0.475359;0.455023
7.830;-0.403026;0.550129
7.840;-0.336822;0.635928
7.850;-0.278134;0.712400
7.860;-0.227820;0.779962
