Time[s];COPx[cm];COPy[cm]
0.010;-3.087943;3.118494
0.020;-3.082829;3.074169
0.030;-3.078357;3.028363
0.040;-3.075156;2.979759
0.050;-3.073898;2.927445
0.060;-3.075284;2.870710
0.070;-3.079941;2.808684
0.080;-3.088245;2.740151
0.090;-3.100085;2.663790
0.100;-3.114666;2.578870
0.110;-3.130439;2.486104
0.120;-3.145260;2.388171
0.130;-3.156747;2.289497
0.140;-3.162764;2.195238
0.150;-3.161866;2.109845
0.160;-3.153589;2.035882
0.170;-3.138497;1.973641
0.180;-3.117989;1.921597
0.190;-3.093926;1.877314
0.200;-3.068170;1.838302
0.210;-3.042124;1.802491
0.220;-3.016414;1.768338
0.230;-2.990788;1.734793
0.240;-2.964287;1.701285
0.250;-2.935592;1.667757
0.260;-2.903417;1.634620
0.270;-2.866824;1.602567
0.280;-2.825391;1.572252
0.290;-2.779246;1.543991
0.300;-2.728986;1.517577
0.310;-2.675549;1.492274
0.320;-2.620082;1.466920
0.330;-2.563857;1.440089
0.340;-2.508219;1.410263
0.350;-2.454508;1.375986
0.360;-2.403915;1.335993
0.370;-2.357330;1.289347
0.380;-2.315222;1.235627
0.390;-2.277638;1.175160
0.400;-2.244303;1.109159
0.410;-2.214785;1.039654
0.420;-2.188633;0.969134
0.430;-2.165460;0.900043
0.440;-2.144955;0.834326
0.450;-2.126865;0.773220
0.460;-2.110970;0.717317
0.470;-2.097033;0.666813
0.480;-2.084727;0.621780
0.490;-2.073524;0.582317
0.500;-2.062655;0.548581
0.510;-2.051155;0.520724
0.520;-2.038023;0.498835
0.530;-2.022408;0.482887
0.540;-2.003777;0.472686
0.550;-1.981984;0.467777
0.560;-1.957237;0.467341
0.570;-1.929947;0.470148
0.580;-1.900513;0.474665
0.590;-1.869123;0.479332
0.600;-1.835662;0.482959
0.610;-1.799759;0.485065
0.620;-1.760982;0.486023
0.630;-1.719106;0.486926
0.640;-1.674364;0.489188
0.650;-1.627558;0.494093
0.660;-1.579995;0.502455
0.670;-1.533245;0.514524
0.680;-1.488842;0.530123
0.690;-1.448036;0.548909
0.700;-1.411672;0.570675
0.710;-1.380166;0.595631
0.720;-1.353548;0.624575
0.730;-1.331533;0.658917
0.740;-1.313644;0.700463
0.750;-1.299385;0.751022
0.760;-1.288429;0.811930
0.770;-1.280755;0.883704
0.780;-1.276670;0.965993
0.790;-1.276699;1.057858
0.800;-1.281391;1.158231
0.810;-1.291082;1.266255
0.820;-1.305695;1.381251
0.830;-1.324602;1.502259
0.840;-1.346605;1.627382
0.850;-1.370045;1.753362
0.860;-1.393039;1.875751
0.870;-1.413795;1.989786
0.880;-1.430925;2.091660
0.890;-1.443654;2.179604
0.900;-1.451884;2.254273
0.910;-1.456070;2.318266
0.920;-1.457022;2.375029
0.930;-1.455689;2.427696
0.940;-1.453002;2.478371
0.950;-1.449779;2.528073
0.960;-1.446659;2.577200
0.970;-1.444081;2.626160
0.980;-1.442289;2.675783
0.990;-1.441368;2.727352
1.000;-1.441282;2.782322
1.010;-1.441909;2.841959
1.020;-1.443046;2.907085
1.030;-1.444385;2.977944
1.040;-1.445473;3.054122
1.050;-1.445684;3.134475
1.060;-1.444254;3.217107
1.070;-1.440375;3.299531
1.080;-1.433312;3.378991
1.090;-1.422511;3.452826
1.100;-1.407670;3.518713
1.110;-1.388767;3.574736
1.120;-1.366088;3.619371
1.130;-1.340215;3.651589
1.140;-1.311972;3.671176
1.150;-1.282290;3.679215
1.160;-1.252031;3.678440
1.170;-1.221834;3.673132
1.180;-1.192051;3.668367
1.190;-1.162793;3.668778
1.200;-1.134072;3.677312
1.210;-1.106004;3.694526
1.220;-1.078983;3.718752
1.230;-1.053781;3.747024
1.240;-1.031496;3.776343
1.250;-1.013350;3.804767
1.260;-1.000353;3.832002
1.270;-0.992959;3.859439
1.280;-0.990852;3.889754
1.290;-0.993047;3.926246
1.300;-0.998306;3.972105
1.310;-1.005728;4.029788
1.320;-1.015222;4.100691
1.330;-1.027664;4.185171
1.340;-1.044632;4.282793
1.350;-1.067794;4.392525
1.360;-1.098129;4.512604
1.370;-1.135192;4.640073
1.380;-1.176708;4.770258
1.390;-1.218710;4.896616
1.400;-1.256292;5.011294
1.410;-1.284836;5.106383
1.420;-1.301291;5.175440
1.430;-1.304993;5.214636
1.440;-1.297649;5.223116
1.450;-1.282507;5.202536
1.460;-1.263115;5.156205
1.470;-1.242198;5.088304
1.480;-1.221065;5.003488
1.490;-1.199667;4.906830
1.500;-1.177133;4.803830
1.510;-1.152513;4.700195
1.520;-1.125410;4.601317
1.530;-1.096305;4.511571
1.540;-1.066512;4.433738
1.550;-1.037825;4.368770
1.560;-1.012013;4.315967
1.570;-0.990325;4.273500
1.580;-0.973179;4.239090
1.590;-0.960135;4.210669
1.600;-0.950137;4.186847
1.610;-0.941927;4.167107
1.620;-0.934455;4.151750
1.630;-0.927171;4.141662
1.640;-0.920092;4.137954
1.650;-0.913694;4.141505
1.660;-0.908705;4.152466
1.670;-0.905909;4.169879
1.680;-0.906014;4.191565
1.690;-0.909565;4.214353
1.700;-0.916851;4.234603
1.710;-0.927777;4.248864
1.720;-0.941733;4.254502
1.730;-0.957583;4.250116
1.740;-0.973871;4.235620
1.750;-0.989221;4.211972
1.760;-1.002756;4.180710
1.770;-1.014314;4.143508
1.780;-1.024344;4.101896
1.790;-1.033512;4.057153
1.800;-1.042210;4.010270
1.810;-1.050219;3.961900
1.820;-1.056663;3.912267
1.830;-1.060263;3.861128
1.840;-1.059774;3.807854
1.850;-1.054410;3.751645
1.860;-1.044124;3.691868
1.870;-1.029647;3.628443
1.880;-1.012296;3.562193
1.890;-0.993595;3.494962
1.900;-0.974877;3.429353
1.910;-0.957037;3.368054
1.920;-0.940553;3.312981
1.930;-0.925750;3.264571
1.940;-0.913153;3.221453
1.950;-0.903757;3.180545
1.960;-0.899111;3.137439
1.970;-0.901200;3.086942
1.980;-0.912210;3.023717
1.990;-0.934217;2.943047
2.000;-0.968821;2.841713
2.010;-1.016719;2.718893
2.020;-1.077253;2.576843
2.030;-1.148068;2.421030
2.040;-1.225116;2.259489
2.050;-1.303171;2.101409
2.060;-1.376840;1.955307
2.070;-1.441732;1.827470
2.080;-1.495311;1.721219
2.090;-1.537070;1.637137
2.100;-1.568012;1.573900
2.110;-1.589764;1.529201
2.120;-1.603778;1.500411
2.130;-1.610885;1.484905
2.140;-1.611259;1.480179
2.150;-1.604636;1.483874
2.160;-1.590646;1.493801
2.170;-1.569150;1.507971
2.180;-1.540540;1.524661
2.190;-1.505942;1.542509
2.200;-1.467289;1.560676
2.210;-1.427198;1.579087
2.220;-1.388652;1.598672
2.230;-1.354537;1.621406
2.240;-1.327171;1.649938
2.250;-1.307960;1.686745
2.260;-1.297305;1.733029
2.270;-1.294776;1.787831
2.280;-1.299463;1.847844
2.290;-1.310357;1.908112
2.300;-1.326595;1.963328
2.310;-1.347469;2.009162
2.320;-1.372234;2.043068
2.330;-1.399857;2.064395
2.340;-1.428881;2.073962
2.350;-1.457485;2.073449
2.360;-1.483719;2.064901
2.370;-1.505805;2.050416
2.380;-1.522400;2.032003
2.390;-1.532721;2.011455
2.400;-1.536537;1.990201
2.410;-1.534081;1.969145
2.420;-1.525940;1.948636
2.430;-1.512982;1.928655
2.440;-1.496327;1.909166
2.450;-1.477347;1.890500
2.460;-1.457651;1.873598
2.470;-1.439003;1.860013
2.480;-1.423169;1.851673
2.490;-1.411670;1.850462
2.500;-1.405533;1.857800
2.510;-1.405128;1.874364
2.520;-1.410197;1.900147
2.530;-1.420047;1.934878
2.540;-1.433853;1.978744
2.550;-1.450933;2.033148
2.560;-1.470898;2.101134
2.570;-1.493637;2.187085
2.580;-1.519160;2.295538
2.590;-1.547349;2.429330
2.600;-1.577682;2.587657
2.610;-1.608989;2.764860
2.620;-1.639338;2.950569
2.630;-1.666157;3.131419
2.640;-1.686668;3.293943
2.650;-1.698555;3.427692
2.660;-1.700671;3.527509
2.670;-1.693502;3.594141
2.680;-1.679197;3.633092
2.690;-1.661111;3.652310
2.700;-1.643011;3.659681
2.710;-1.628179;3.661199
2.720;-1.618698;3.660215
2.730;-1.615098;3.657698
2.740;-1.616471;3.653142
2.750;-1.620965;3.645680
2.760;-1.626467;3.634994
2.770;-1.631209;3.621777
2.780;-1.634122;3.607672
2.790;-1.634879;3.594812
2.800;-1.633720;3.585180
2.810;-1.631179;3.580018
2.820;-1.627818;3.579485
2.830;-1.624003;3.582645
2.840;-1.619770;3.587771
2.850;-1.614749;3.592807
2.860;-1.608168;3.595769
2.870;-1.598979;3.595024
2.880;-1.586114;3.589463
2.890;-1.568815;3.578693
2.900;-1.546892;3.563197
2.910;-1.520793;3.544384
2.920;-1.491446;3.524389
2.930;-1.459971;3.505611
2.940;-1.427386;3.490098
2.950;-1.394453;3.478992
2.960;-1.361710;3.472234
2.970;-1.329673;3.468653
2.980;-1.299069;3.466386
2.990;-1.270956;3.463481
3.000;-1.246650;3.458487
3.010;-1.227440;3.450823
3.020;-1.214251;3.440785
3.030;-1.207350;3.429149
3.040;-1.206260;3.416510
3.050;-1.209892;3.402632
3.060;-1.216837;3.386133
3.070;-1.225691;3.364640
3.080;-1.235245;3.335352
3.090;-1.244527;3.295752
3.100;-1.252723;3.244222
3.110;-1.259113;3.180430
3.120;-1.263091;3.105438
3.130;-1.264285;3.021559
3.140;-1.262693;2.931943
3.150;-1.258723;2.839961
3.160;-1.253059;2.748521
3.170;-1.246376;2.659504
3.180;-1.239054;2.573521
3.190;-1.231050;2.490094
3.200;-1.222019;2.408211
3.210;-1.211638;2.327039
3.220;-1.199996;2.246504
3.230;-1.187880;2.167497
3.240;-1.176842;2.091652
3.250;-1.169039;2.020821
3.260;-1.166858;1.956497
3.270;-1.172403;1.899379
3.280;-1.186948;1.849213
3.290;-1.210501;1.804910
3.300;-1.241608;1.764845
3.310;-1.277512;1.727222
3.320;-1.314666;1.690401
3.330;-1.349481;1.653164
3.340;-1.379063;1.614906
3.350;-1.401690;1.575730
3.360;-1.416881;1.536379
3.370;-1.425120;1.497981
3.380;-1.427392;1.461677
3.390;-1.424733;1.428311
3.400;-1.417920;1.398294
3.410;-1.407379;1.371692
3.420;-1.393303;1.348443
3.430;-1.375937;1.328553
3.440;-1.355905;1.312187
3.450;-1.334454;1.299576
3.460;-1.313485;1.290834
3.470;-1.295312;1.285797
3.480;-1.282213;1.284005
3.490;-1.275941;1.284833
3.500;-1.277415;1.287714
3.510;-1.286725;1.292347
3.520;-1.303470;1.298818
3.530;-1.327271;1.307646
3.540;-1.358192;1.319770
3.550;-1.396866;1.336487
3.560;-1.444228;1.359313
3.570;-1.500987;1.389686
3.580;-1.567020;1.428548
3.590;-1.640889;1.475907
3.600;-1.719634;1.530601
3.610;-1.798954;1.590406
3.620;-1.873810;1.652536
3.630;-1.939366;1.714438
3.640;-1.991972;1.774583
3.650;-2.029890;1.832905
3.660;-2.053494;1.890661
3.670;-2.064932;1.949802
3.680;-2.067373;2.012158
3.690;-2.064100;2.078794
3.700;-2.057723;2.149718
3.710;-2.049704;2.223937
3.720;-2.040296;2.299757
3.730;-2.028851;2.375222
3.740;-2.014376;2.448529
3.750;-1.996121;2.518322
3.760;-1.974003;2.583780
3.770;-1.948703;2.644475
3.780;-1.921448;2.700106
3.790;-1.893622;2.750253
3.800;-1.866404;2.794319
3.810;-1.840535;2.831700
3.820;-1.816245;2.862060
3.830;-1.793316;2.885576
3.840;-1.771247;2.903014
3.850;-1.749493;2.915658
3.860;-1.727678;2.925100
3.870;-1.705725;2.932966
3.880;-1.683829;2.940622
3.890;-1.662318;2.948899
3.900;-1.641450;2.957905
3.910;-1.621275;2.966967
3.920;-1.601621;2.974771
3.930;-1.582192;2.979711
3.940;-1.562709;2.980360
3.950;-1.543024;2.975916
3.960;-1.523187;2.966451
3.970;-1.503446;2.952855
3.980;-1.484206;2.936495
3.990;-1.465942;2.918726
4.000;-1.449060;2.900464
4.010;-1.433739;2.881921
4.020;-1.419808;2.862577
4.030;-1.406732;2.841338
4.040;-1.393715;2.816841
4.050;-1.379879;2.787822
4.060;-1.364455;2.753455
4.070;-1.346957;2.713576
4.080;-1.327328;2.668732
4.090;-1.306037;2.620093
4.100;-1.284059;2.569298
4.110;-1.262704;2.518332
4.120;-1.243302;2.469439
4.130;-1.226863;2.425015
4.140;-1.213842;2.387355
4.150;-1.204099;2.358242
4.160;-1.197069;2.338484
4.170;-1.192048;2.327600
4.180;-1.188490;2.323831
4.190;-1.186224;2.324523
4.200;-1.185578;2.326729
4.210;-1.187381;2.327851
4.220;-1.192851;2.326117
4.230;-1.203356;2.320817
4.240;-1.220086;2.312300
4.250;-1.243682;2.301777
4.260;-1.273946;2.291004
4.270;-1.309734;2.281861
4.280;-1.349135;2.275900
4.290;-1.389884;2.273964
4.300;-1.429886;2.275992
4.310;-1.467664;2.281014
4.320;-1.502547;2.287332
4.330;-1.534546;2.292860
4.340;-1.563974;2.295563
4.350;-1.591039;2.293931
4.360;-1.615593;2.287319
4.370;-1.637151;2.276026
4.380;-1.655095;2.261057
4.390;-1.668932;2.243686
4.400;-1.678460;2.225000
4.410;-1.683799;2.205615
4.420;-1.685354;2.185650
4.430;-1.683800;2.164917
4.440;-1.680132;2.143211
4.450;-1.675708;2.120567
4.460;-1.672208;2.097365
4.470;-1.671450;2.074234
4.480;-1.675118;2.051846
4.490;-1.684451;2.030724
4.500;-1.699999;2.011171
4.510;-1.721505;1.993301
4.520;-1.747967;1.977104
4.530;-1.777896;1.962501
4.540;-1.809699;1.949373
4.550;-1.842082;1.937595
4.560;-1.874348;1.927090
4.570;-1.906491;1.917906
4.580;-1.939042;1.910290
4.590;-1.972751;1.904702
4.600;-2.008221;1.901743
4.610;-2.045622;1.902031
4.620;-2.084581;1.906064
4.630;-2.124212;1.914087
4.640;-2.163257;1.925970
4.650;-2.200275;1.941110
4.660;-2.233864;1.958420
4.670;-2.262904;1.976457
4.680;-2.286794;1.993667
4.690;-2.305612;2.008706
4.700;-2.320114;2.020710
4.710;-2.331553;2.029443
4.720;-2.341379;2.035281
4.730;-2.350918;2.039055
4.740;-2.361173;2.041803
4.750;-2.372772;2.044529
4.760;-2.386041;2.048056
4.770;-2.401151;2.053037
4.780;-2.418277;2.060106
4.790;-2.437740;2.070092
4.800;-2.460110;2.084134
4.810;-2.486271;2.103599
4.820;-2.517423;2.129778
4.830;-2.555002;2.163485
4.840;-2.600508;2.204728
4.850;-2.655237;2.252591
4.860;-2.719968;2.305332
4.870;-2.794648;2.360582
4.880;-2.878170;2.415543
4.890;-2.968328;2.467172
4.900;-3.062009;2.512464
4.910;-3.155610;2.548892
4.920;-3.245619;2.574958
4.930;-3.329186;2.590666
4.940;-3.404526;2.597698
4.950;-3.471006;2.599152
4.960;-3.528917;2.598886
4.970;-3.579025;2.600624
4.980;-3.622052;2.607109
4.990;-3.658254;2.619548
5.000;-3.687219;2.637565
5.010;-3.707996;2.659652
5.020;-3.719513;2.683950
5.030;-3.721155;2.708983
5.040;-3.713249;2.734074
5.050;-3.697294;2.759309
5.060;-3.675828;2.785161
5.070;-3.651957;2.811985
5.080;-3.628680;2.839599
5.090;-3.608253;2.867105
5.100;-3.591812;2.893001
5.110;-3.579427;2.915517
5.120;-3.570591;2.933066
5.130;-3.564964;2.944696
5.140;-3.563054;2.950405
5.150;-3.566483;2.951171
5.160;-3.577617;2.948627
5.170;-3.598655;2.944403
5.180;-3.630548;2.939324
5.190;-3.672241;2.932753
5.200;-3.720645;2.922366
5.210;-3.771430;2.904491
5.220;-3.820331;2.874954
5.230;-3.864394;2.830132
5.240;-3.902585;2.767887
5.250;-3.935513;2.688121
5.260;-3.964470;2.592871
5.270;-3.990314;2.485994
5.280;-4.012767;2.372484
5.290;-4.030409;2.257556
5.300;-4.041307;2.145665
5.310;-4.043930;2.039788
5.320;-4.037879;1.941190
5.330;-4.024103;1.849774
5.340;-4.004523;1.764795
5.350;-3.981264;1.685587
5.360;-3.955804;1.611978
5.370;-3.928336;1.544260
5.380;-3.897548;1.482821
5.390;-3.860963;1.427691
5.400;-3.815792;1.378246
5.410;-3.760057;1.333238
5.420;-3.693564;1.291127
5.430;-3.618329;1.250550
5.440;-3.538293;1.210719
5.450;-3.458456;1.171569
5.460;-3.383761;1.133617
5.470;-3.318098;1.097556
5.480;-3.263680;1.063772
5.490;-3.220895;1.031983
5.500;-3.188588;1.001169
5.510;-3.164627;0.969866
5.520;-3.146558;0.936698
5.530;-3.132170;0.900914
5.540;-3.119855;0.862676
5.550;-3.108736;0.822961
5.560;-3.098655;0.783136
5.570;-3.090120;0.744401
5.580;-3.084246;0.707333
5.590;-3.082648;0.671679
5.600;-3.087170;0.636468
5.610;-3.099408;0.600431
5.620;-3.120092;0.562584
5.630;-3.148527;0.522809
5.640;-3.182300;0.482183
5.650;-3.217430;0.442884
5.660;-3.248998;0.407622
5.670;-3.272130;0.378729
5.680;-3.283069;0.357251
5.690;-3.279982;0.342422
5.700;-3.263220;0.331790
5.710;-3.234945;0.321991
5.720;-3.198310;0.309864
5.730;-3.156512;0.293468
5.740;-3.112068;0.272583
5.750;-3.066525;0.248556
5.760;-3.020585;0.223596
5.770;-2.974481;0.199843
5.780;-2.928337;0.178608
5.790;-2.882344;0.160035
5.800;-2.836727;0.143260
5.810;-2.791631;0.126922
5.820;-2.747059;0.109779
5.830;-2.702909;0.091180
5.840;-2.659071;0.071272
5.850;-2.615563;0.050974
5.860;-2.572652;0.031800
5.870;-2.530945;0.015614
5.880;-2.491381;0.004353
5.890;-2.455083;-0.000321
5.900;-2.423054;0.002600
5.910;-2.395825;0.013166
5.920;-2.373189;0.030362
5.930;-2.354172;0.052322
5.940;-2.337249;0.076806
5.950;-2.320734;0.101774
5.960;-2.303175;0.125819
5.970;-2.283627;0.148324
5.980;-2.261717;0.169367
5.990;-2.237496;0.189561
6.000;-2.211139;0.209974
6.010;-2.182642;0.232094
6.020;-2.151655;0.257718
6.030;-2.117557;0.288653
6.040;-2.079776;0.326276
6.050;-2.038193;0.371157
6.060;-1.993438;0.423002
6.070;-1.946896;0.481051
6.080;-1.900380;0.544844
6.090;-1.855606;0.615001
6.100;-1.813673;0.693582
6.110;-1.774770;0.783709
6.120;-1.738229;0.888487
6.130;-1.702926;1.009565
6.140;-1.667860;1.145986
6.150;-1.632667;1.293882
6.160;-1.597844;1.447213
6.170;-1.564572;1.599248
6.180;-1.534265;1.744123
6.190;-1.508048;1.877875
6.200;-1.486400;1.998631
6.210;-1.469058;2.106123
6.220;-1.455182;2.200897
6.230;-1.443670;2.283646
6.240;-1.433476;2.354823
6.250;-1.423816;2.414536
6.260;-1.414220;2.462618
6.270;-1.404495;2.498832
6.280;-1.394651;2.523199
6.290;-1.384851;2.536411
6.300;-1.375356;2.540154
6.310;-1.366424;2.537140
6.320;-1.358199;2.530693
6.330;-1.350622;2.524024
6.340;-1.343463;2.519477
6.350;-1.336428;2.518105
6.360;-1.329319;2.519748
6.370;-1.322138;2.523496
6.380;-1.315102;2.528258
6.390;-1.308561;2.533184
6.400;-1.302856;2.537824
6.410;-1.298162;2.542098
6.420;-1.294388;2.546144
6.430;-1.291143;2.550159
6.440;-1.287787;2.554275
6.450;-1.283540;2.558503
6.460;-1.277641;2.562716
6.470;-1.269492;2.566601
6.480;-1.258734;2.569581
6.490;-1.245222;2.570733
6.500;-1.228935;2.568775
6.510;-1.209855;2.562178
6.520;-1.187893;2.549404
6.530;-1.162894;2.529208
6.540;-1.134740;2.500953
6.550;-1.103486;2.464893
6.560;-1.069454;2.422355
6.570;-1.033201;2.375770
6.580;-0.995393;2.328479
6.590;-0.956652;2.284310
6.600;-0.917431;2.246967
6.610;-0.877946;2.219344
6.620;-0.838173;2.202933
6.630;-0.797896;2.197511
6.640;-0.756823;2.201222
6.650;-0.714695;2.211103
6.660;-0.671352;2.223900
6.670;-0.626729;2.236938
6.680;-0.580834;2.248762
6.690;-0.533737;2.259383
6.700;-0.485600;2.270064
6.710;-0.436699;2.282808
6.720;-0.387440;2.299724
6.730;-0.338331;2.322511
6.740;-0.289929;2.352129
6.750;-0.242777;2.388642
6.760;-0.197372;2.431170
6.770;-0.154179;2.477965
6.780;-0.113641;2.526644
6.790;-0.076175;2.574565
6.800;-0.042157;2.619252
6.810;-0.011936;2.658752
6.820;0.014094;2.691831
6.830;0.035437;2.717996
6.840;0.051538;2.737413
6.850;0.061985;2.750770
6.860;0.066788;2.759132
6.870;0.066561;2.763796
6.880;0.062487;2.766170
6.890;0.056036;2.767680
6.900;0.048595;2.769738
6.910;0.041190;2.773700
6.920;0.034462;2.780809
6.930;0.028868;2.792090
6.940;0.024930;2.808214
6.950;0.023339;2.829350
6.960;0.024839;2.855010
6.970;0.030020;2.883963
6.980;0.039157;2.914306
6.990;0.052182;2.943735
7.000;0.068761;2.969981
7.010;0.088356;2.991289
7.020;0.110238;3.006806
7.030;0.133466;3.016802
7.040;0.156883;3.022678
7.050;0.179184;3.026725
7.060;0.199069;3.031681
7.070;0.215419;3.040182
7.080;0.227428;3.054292
7.090;0.234622;3.075235
7.100;0.236762;3.103405
7.110;0.233664;3.138552
7.120;0.225059;3.180041
7.130;0.210553;3.227063
7.140;0.189714;3.278743
7.150;0.162213;3.334122
7.160;0.127978;3.392016
7.170;0.087335;3.450805
7.180;0.041125;3.508273
7.190;-0.009192;3.561635
7.200;-0.061526;3.607850
7.210;-0.113301;3.644210
7.220;-0.161791;3.669027
7.230;-0.204556;3.682171
7.240;-0.239819;3.685224
7.250;-0.266642;3.681202
7.260;-0.284852;3.673955
7.270;-0.294783;3.667436
7.280;-0.296983;3.665015
7.290;-0.291987;3.668956
7.300;-0.280231;3.680136
7.310;-0.262114;3.698036
7.320;-0.238143;3.720999
7.330;-0.209076;3.746688
7.340;-0.175988;3.772618
7.350;-0.140224;3.796628
7.360;-0.103297;3.817178
7.370;-0.066803;3.833418
7.380;-0.032394;3.845059
7.390;-0.001801;3.852166
7.400;0.023174;3.854938
7.410;0.040742;3.853518
7.420;0.049324;3.847830
7.430;0.047786;3.837479
7.440;0.035634;3.821780
7.450;0.013047;3.799938
7.460;-0.019280;3.771322
7.470;-0.060434;3.735739
7.480;-0.109549;3.693613
7.490;-0.165925;3.646011
7.500;-0.228890;3.594476
7.510;-0.297492;3.540705
7.520;-0.370124;3.486157
7.530;-0.444302;3.431779
7.540;-0.516758;3.377923
7.550;-0.583939;3.324401
7.560;-0.642768;3.270542
7.570;-0.691392;3.215203
7.580;-0.729590;3.156845
7.590;-0.758684;3.093813
7.600;-0.780981;3.024821
7.610;-0.798998;2.949480
7.620;-0.814717;2.868627
7.630;-0.829151;2.784277
7.640;-0.842323;2.699182
7.650;-0.853632;2.616134
7.660;-0.862448;2.537296
7.670;-0.868682;2.463773
7.680;-0.873143;2.395541
7.690;-0.877544;2.331641
7.700;-0.884180;2.270504
7.710;-0.895367;2.210300
7.720;-0.912858;2.149267
7.730;-0.937460;2.086025
7.740;-0.968924;2.019848
7.750;-1.006106;1.950874
7.760;-1.047273;1.880143
7.770;-1.090457;1.809441
7.780;-1.133787;1.740938
7.790;-1.175753;1.676738
7.800;-1.215332;1.618454
7.810;-1.251988;1.566860
7.820;-1.285545;1.521683
7.830;-1.315998;1.481541
7.840;-1.343346;1.444108
7.850;-1.367497;1.406489
7.860;-1.388286;1.365775
7.870;-1.405543;1.319673
7.880;-1.419180;1.267080
7.890;-1.429214;1.208416
7.900;-1.435754;1.145588
7.910;-1.438993;1.081527
7.920;-1.439256;1.019426
7.930;-1.437103;0.961931
7.940;-1.433465;0.910560
7.950;-1.429693;0.865561
7.960;-1.427441;0.826196
7.970;-1.428364;0.791319
7.980;-1.433699;0.760007
7.990;-1.443909;0.732024
8.000;-1.458548;0.707966
