Time[s];COPx[cm];COPy[cm]
0.010;-8.201132;0.848933
0.020;-8.207474;0.844686
0.030;-8.212799;0.840501
0.040;-8.216078;0.836304
0.050;-8.216400;0.831823
0.060;-8.213236;0.826677
0.070;-8.206723;0.820555
0.080;-8.197769;0.813427
0.090;-8.187849;0.805673
0.100;-8.178573;0.798031
0.110;-8.171245;0.791365
0.120;-8.166621;0.786339
0.130;-8.164902;0.783166
0.140;-8.165867;0.781540
0.150;-8.169025;0.780775
0.160;-8.173733;0.780086
0.170;-8.179291;0.778905
0.180;-8.185031;0.777103
0.190;-8.190417;0.775022
0.200;-8.195124;0.773328
0.210;-8.199073;0.772751
0.220;-8.202395;0.773863
0.230;-8.205349;0.776965
0.240;-8.208263;0.782086
0.250;-8.211506;0.789048
0.260;-8.215473;0.797499
0.270;-8.220490;0.806894
0.280;-8.226652;0.816473
0.290;-8.233660;0.825327
0.300;-8.240790;0.832598
0.310;-8.247067;0.837752
0.320;-8.251571;0.840774
0.330;-8.253746;0.842154
0.340;-8.253552;0.842652
0.350;-8.251394;0.842998
0.360;-8.247914;0.843688
0.370;-8.243745;0.844953
0.380;-8.239351;0.846820
0.390;-8.235019;0.849145
0.400;-8.230964;0.851577
0.410;-8.227461;0.853553
0.420;-8.224871;0.854406
0.430;-8.223518;0.853601
0.440;-8.223504;0.850962
0.450;-8.224635;0.846782
0.460;-8.226551;0.841782
0.470;-8.228990;0.836952
0.480;-8.231991;0.833363
0.490;-8.235892;0.831931
0.500;-8.241105;0.833169
0.510;-8.247844;0.836978
0.520;-8.255979;0.842608
0.530;-8.265100;0.848871
0.540;-8.274718;0.854550
0.550;-8.284467;0.858807
0.560;-8.294207;0.861420
0.570;-8.303976;0.862748
0.580;-8.313823;0.863470
0.590;-8.323591;0.864211
0.600;-8.332785;0.865226
0.610;-8.340614;0.866283
0.620;-8.346201;0.866773
0.630;-8.348867;0.865995
0.640;-8.348371;0.863465
0.650;-8.344991;0.859099
0.660;-8.339451;0.853209
0.670;-8.332716;0.846357
0.680;-8.325742;0.839130
0.690;-8.319256;0.831954
0.700;-8.313633;0.824997
0.710;-8.308928;0.818196
0.720;-8.305023;0.811372
0.730;-8.301815;0.804387
0.740;-8.299317;0.797262
0.750;-8.297666;0.790178
0.760;-8.297058;0.783334
0.770;-8.297687;0.776759
0.780;-8.299705;0.770242
0.790;-8.303193;0.763444
0.800;-8.308111;0.756155
0.810;-8.314257;0.748489
0.820;-8.321272;0.740897
0.830;-8.328690;0.734016
0.840;-8.336019;0.728445
0.850;-8.342841;0.724563
0.860;-8.348934;0.722413
0.870;-8.354363;0.721641
0.880;-8.359471;0.721501
0.890;-8.364713;0.720964
0.900;-8.370401;0.718962
0.910;-8.376477;0.714707
0.920;-8.382473;0.707972
0.930;-8.387732;0.699216
0.940;-8.391752;0.689475
0.950;-8.394442;0.680048
0.960;-8.396136;0.672114
0.970;-8.397419;0.666456
0.980;-8.398924;0.663383
0.990;-8.401207;0.662791
1.000;-8.404720;0.664237
1.010;-8.409787;0.666996
1.020;-8.416549;0.670161
1.030;-8.424875;0.672816
1.040;-8.434297;0.674258
1.050;-8.444010;0.674167
1.060;-8.452957;0.672641
1.070;-8.459995;0.670063
1.080;-8.464142;0.666851
1.090;-8.464833;0.663233
1.100;-8.462132;0.659197
1.110;-8.456787;0.654649
1.120;-8.450072;0.649677
1.130;-8.443438;0.644712
1.140;-8.438078;0.640460
1.150;-8.434564;0.637628
1.160;-8.432701;0.636630
1.170;-8.431639;0.637421
1.180;-8.430196;0.639566
1.190;-8.427226;0.642456
1.200;-8.421916;0.645555
1.210;-8.413968;0.648556
1.220;-8.403636;0.651388
1.230;-8.391624;0.654146
1.240;-8.378893;0.656987
1.250;-8.366430;0.660039
1.260;-8.355057;0.663330
1.270;-8.345309;0.666767
1.280;-8.337376;0.670175
1.290;-8.331101;0.673370
1.300;-8.326038;0.676239
1.310;-8.321597;0.678775
1.320;-8.317255;0.681074
1.330;-8.312741;0.683322
1.340;-8.308090;0.685790
1.350;-8.303532;0.688855
1.360;-8.299308;0.692979
1.370;-8.295504;0.698575
1.380;-8.292034;0.705774
1.390;-8.288755;0.714206
1.400;-8.285660;0.722976
1.410;-8.282994;0.730889
1.420;-8.281177;0.736873
1.430;-8.280576;0.740414
1.440;-8.281274;0.741807
1.450;-8.282981;0.742091
1.460;-8.285127;0.742707
1.470;-8.287059;0.745025
1.480;-8.288249;0.749929
1.490;-8.288436;0.757590
1.500;-8.287681;0.767468
1.510;-8.286342;0.778480
1.520;-8.284992;0.789302
1.530;-8.284283;0.798713
1.540;-8.284766;0.805916
1.550;-8.286687;0.810737
1.560;-8.289839;0.813629
1.570;-8.293510;0.815478
1.580;-8.296620;0.817305
1.590;-8.297995;0.819974
1.600;-8.296730;0.823956
1.610;-8.292478;0.829200
1.620;-8.285581;0.835135
1.630;-8.276960;0.840818
1.640;-8.267816;0.845223
1.650;-8.259224;0.847593
1.660;-8.251780;0.847685
1.670;-8.245448;0.845832
1.680;-8.239657;0.842805
1.690;-8.233585;0.839595
1.700;-8.226484;0.837206
1.710;-8.217945;0.836505
1.720;-8.207986;0.838107
1.730;-8.196953;0.842270
1.740;-8.185311;0.848779
1.750;-8.173475;0.856926
1.760;-8.161751;0.865637
1.770;-8.150373;0.873765
1.780;-8.139546;0.880411
1.790;-8.129455;0.885128
1.800;-8.120236;0.887958
1.810;-8.111957;0.889363
1.820;-8.104626;0.890115
1.830;-8.098207;0.891134
1.840;-8.092608;0.893246
1.850;-8.087639;0.896908
1.860;-8.082994;0.902003
1.870;-8.078307;0.907852
1.880;-8.073295;0.913489
1.890;-8.067922;0.918083
1.900;-8.062479;0.921329
1.910;-8.057485;0.923596
1.920;-8.053456;0.925761
1.930;-8.050668;0.928777
1.940;-8.049065;0.933195
1.950;-8.048348;0.938871
1.960;-8.048139;0.945011
1.970;-8.048095;0.950505
1.980;-8.047939;0.954351
1.990;-8.047427;0.955976
2.000;-8.046322;0.955371
2.010;-8.044395;0.953022
2.020;-8.041459;0.949726
2.030;-8.037453;0.946331
2.040;-8.032539;0.943469
2.050;-8.027160;0.941385
2.060;-8.021961;0.939936
2.070;-8.017595;0.938762
2.080;-8.014502;0.937531
2.090;-8.012779;0.936119
2.100;-8.012215;0.934624
2.110;-8.012421;0.933239
2.120;-8.012968;0.932077
2.130;-8.013421;0.931049
2.140;-8.013309;0.929833
2.150;-8.012108;0.927951
2.160;-8.009333;0.924911
2.170;-8.004699;0.920368
2.180;-7.998251;0.914261
2.190;-7.990351;0.906888
2.200;-7.981533;0.898866
2.210;-7.972330;0.891006
2.220;-7.963172;0.884108
2.230;-7.954360;0.878755
2.240;-7.946067;0.875147
2.250;-7.938333;0.873055
2.260;-7.931074;0.871918
2.270;-7.924110;0.871044
2.280;-7.917229;0.869862
2.290;-7.910258;0.868124
2.300;-7.903132;0.865995
2.310;-7.895935;0.863935
2.320;-7.888879;0.862435
2.330;-7.882196;0.861709
2.340;-7.875973;0.861537
2.350;-7.870021;0.861367
2.360;-7.863856;0.860604
2.370;-7.856827;0.858926
2.380;-7.848368;0.856459
2.390;-7.838294;0.853727
2.400;-7.826978;0.851413
2.410;-7.815289;0.850026
2.420;-7.804304;0.849659
2.430;-7.794931;0.849956
2.440;-7.787614;0.850319
2.450;-7.782256;0.850211
2.460;-7.778329;0.849377
2.470;-7.775095;0.847862
2.480;-7.771845;0.845890
2.490;-7.768085;0.843708
2.500;-7.763670;0.841475
2.510;-7.758851;0.839228
2.520;-7.754222;0.836901
2.530;-7.750508;0.834393
2.540;-7.748245;0.831624
2.550;-7.747470;0.828567
2.560;-7.747639;0.825229
2.570;-7.747845;0.821613
2.580;-7.747244;0.817679
2.590;-7.745447;0.813336
2.600;-7.742664;0.808494
2.610;-7.739561;0.803139
2.620;-7.736934;0.797406
2.630;-7.735385;0.791577
2.640;-7.735110;0.786003
2.650;-7.735893;0.780986
2.660;-7.737281;0.776692
2.670;-7.738858;0.773128
2.680;-7.740445;0.770181
2.690;-7.742128;0.767656
2.700;-7.744102;0.765295
2.710;-7.746425;0.762786
2.720;-7.748861;0.759802
2.730;-7.750895;0.756085
2.740;-7.751933;0.751509
2.750;-7.751563;0.746109
2.760;-7.749702;0.740084
2.770;-7.746548;0.733791
2.780;-7.742411;0.727711
2.790;-7.737591;0.722345
2.800;-7.732392;0.718055
2.810;-7.727217;0.714907
2.820;-7.722573;0.712622
2.830;-7.718939;0.710664
2.840;-7.716570;0.708442
2.850;-7.715375;0.705527
2.860;-7.714915;0.701803
2.870;-7.714506;0.697510
2.880;-7.713337;0.693183
2.890;-7.710593;0.689516
2.900;-7.705611;0.687207
2.910;-7.698026;0.686759
2.920;-7.687900;0.688265
2.930;-7.675754;0.691233
2.940;-7.662513;0.694597
2.950;-7.649361;0.696968
2.960;-7.637546;0.697108
2.970;-7.628161;0.694411
2.980;-7.621917;0.689191
2.990;-7.618981;0.682611
3.000;-7.618910;0.676269
3.010;-7.620736;0.671610
3.020;-7.623201;0.669406
3.030;-7.625100;0.669588
3.040;-7.625583;0.671491
3.050;-7.624330;0.674337
3.060;-7.621559;0.677670
3.070;-7.617920;0.681496
3.080;-7.614319;0.686143
3.090;-7.611672;0.691982
3.100;-7.610637;0.699178
3.110;-7.611418;0.707573
3.120;-7.613748;0.716708
3.130;-7.617039;0.725968
3.140;-7.620625;0.734773
3.150;-7.623979;0.742759
3.160;-7.626833;0.749876
3.170;-7.629193;0.756387
3.180;-7.631278;0.762757
3.190;-7.633443;0.769465
3.200;-7.636107;0.776795
3.210;-7.639672;0.784704
3.220;-7.644433;0.792831
3.230;-7.650482;0.800653
3.240;-7.657615;0.807700
3.250;-7.665305;0.813738
3.260;-7.672780;0.818837
3.270;-7.679224;0.823322
3.280;-7.684041;0.827647
3.290;-7.687062;0.832246
3.300;-7.688579;0.837401
3.310;-7.689198;0.843168
3.320;-7.689562;0.849389
3.330;-7.690098;0.855772
3.340;-7.690935;0.862017
3.350;-7.692042;0.867896
3.360;-7.693465;0.873283
3.370;-7.695453;0.878111
3.380;-7.698350;0.882341
3.390;-7.702337;0.885989
3.400;-7.707221;0.889219
3.410;-7.712434;0.892428
3.420;-7.717245;0.896238
3.430;-7.721083;0.901339
3.440;-7.723791;0.908226
3.450;-7.725677;0.916938
3.460;-7.727333;0.926935
3.470;-7.729342;0.937190
3.480;-7.732035;0.946498
3.490;-7.735396;0.953850
3.500;-7.739109;0.958726
3.510;-7.742703;0.961217
3.520;-7.745747;0.961973
3.530;-7.748038;0.961995
3.540;-7.749721;0.962353
3.550;-7.751273;0.963896
3.560;-7.753367;0.967027
3.570;-7.756637;0.971599
3.580;-7.761452;0.976951
3.590;-7.767774;0.982097
3.600;-7.775158;0.986042
3.610;-7.782893;0.988134
3.620;-7.790215;0.988301
3.630;-7.796504;0.987069
3.640;-7.801382;0.985367
3.650;-7.804719;0.984194
3.660;-7.806568;0.984266
3.670;-7.807068;0.985783
3.680;-7.806383;0.988391
3.690;-7.804684;0.991326
3.700;-7.802169;0.993702
3.710;-7.799073;0.994799
3.720;-7.795677;0.994305
3.730;-7.792311;0.992408
3.740;-7.789353;0.989761
3.750;-7.787153;0.987311
3.760;-7.785894;0.986037
3.770;-7.785463;0.986649
3.780;-7.785472;0.989332
3.790;-7.785445;0.993666
3.800;-7.785077;0.998765
3.810;-7.784385;1.003605
3.820;-7.783687;1.007406
3.830;-7.783426;1.009894
3.840;-7.783929;1.011334
3.850;-7.785240;1.012351
3.860;-7.787105;1.013645
3.870;-7.789098;1.015719
3.880;-7.790853;1.018720
3.890;-7.792283;1.022445
3.900;-7.793670;1.026484
3.910;-7.795555;1.030426
3.920;-7.798480;1.033993
3.930;-7.802708;1.037061
3.940;-7.808088;1.039581
3.950;-7.814073;1.041471
3.960;-7.819864;1.042557
3.970;-7.824624;1.042587
3.980;-7.827718;1.041348
3.990;-7.828911;1.038831
4.000;-7.828454;1.035334
4.010;-7.827023;1.031412
4.020;-7.825535;1.027683
4.030;-7.824907;1.024580
4.040;-7.825852;1.022190
4.050;-7.828770;1.020247
4.060;-7.833736;1.018273
4.070;-7.840563;1.015780
4.080;-7.848900;1.012436
4.090;-7.858338;1.008161
4.100;-7.868499;1.003108
4.110;-7.879084;0.997573
4.120;-7.889881;0.991860
4.130;-7.900738;0.986181
4.140;-7.911492;0.980624
4.150;-7.921865;0.975203
4.160;-7.931373;0.969927
4.170;-7.939339;0.964831
4.180;-7.945078;0.959947
4.190;-7.948206;0.955239
4.200;-7.948914;0.950560
4.210;-7.948060;0.945677
4.220;-7.947000;0.940366
4.230;-7.947231;0.934532
4.240;-7.949987;0.928284
4.250;-7.955926;0.921902
4.260;-7.964984;0.915714
4.270;-7.976417;0.909946
4.280;-7.989037;0.904660
4.290;-8.001559;0.899823
4.300;-8.012992;0.895435
4.310;-8.022938;0.891598
4.320;-8.031689;0.888445
4.330;-8.040061;0.885996
4.340;-8.048999;0.884065
4.350;-8.059115;0.882283
4.360;-8.070374;0.880217
4.370;-8.082051;0.877520
4.380;-8.092933;0.874029
4.390;-8.101697;0.869775
4.400;-8.107330;0.864929
4.410;-8.109474;0.859725
4.420;-8.108559;0.854406
4.430;-8.105671;0.849187
4.440;-8.102188;0.844218
4.450;-8.099342;0.839545
4.460;-8.097881;0.835117
4.470;-8.097966;0.830858
4.480;-8.099335;0.826781
4.490;-8.101602;0.823080
4.500;-8.104514;0.820129
4.510;-8.108008;0.818373
4.520;-8.112048;0.818143
4.530;-8.116413;0.819482
4.540;-8.120584;0.822058
4.550;-8.123839;0.825204
4.560;-8.125508;0.828089
4.570;-8.125254;0.829931
4.580;-8.123263;0.830230
4.590;-8.120280;0.828932
4.600;-8.117456;0.826476
4.610;-8.116019;0.823671
4.620;-8.116885;0.821394
4.630;-8.120372;0.820212
4.640;-8.126148;0.820122
4.650;-8.133417;0.820585
4.660;-8.141251;0.820839
4.670;-8.148913;0.820329
4.680;-8.156023;0.818981
4.690;-8.162535;0.817198
4.700;-8.168531;0.815590
4.710;-8.174025;0.814637
4.720;-8.178862;0.814452
4.730;-8.182784;0.814767
4.740;-8.185598;0.815121
4.750;-8.187326;0.815142
4.760;-8.188234;0.814742
4.770;-8.188671;0.814128
4.780;-8.188835;0.813639
4.790;-8.188616;0.813551
4.800;-8.187630;0.813956
4.810;-8.185381;0.814778
4.820;-8.181464;0.815867
4.830;-8.175739;0.817073
4.840;-8.168468;0.818258
4.850;-8.160360;0.819268
4.860;-8.152450;0.819967
4.870;-8.145834;0.820302
4.880;-8.141315;0.820359
4.890;-8.139144;0.820281
4.900;-8.138932;0.820103
4.910;-8.139809;0.819638
4.920;-8.140758;0.818505
4.930;-8.140972;0.816312
4.940;-8.140079;0.812870
4.950;-8.138173;0.808332
4.960;-8.135674;0.803192
4.970;-8.133100;0.798143
4.980;-8.130837;0.793853
4.990;-8.128980;0.790745
5.000;-8.127327;0.788888
5.010;-8.125530;0.788031
5.020;-8.123353;0.787729
5.030;-8.120907;0.787501
5.040;-8.118721;0.786967
5.050;-8.117555;0.785948
5.060;-8.118007;0.784513
5.070;-8.120065;0.782972
5.080;-8.122872;0.781783
5.090;-8.124872;0.781378
5.100;-8.124311;0.781947
5.110;-8.119885;0.783289
5.120;-8.111217;0.784791
5.130;-8.098992;0.785605
5.140;-8.084728;0.784951
5.150;-8.070299;0.782449
5.160;-8.057394;0.778325
5.170;-8.047083;0.773376
5.180;-8.039652;0.768688
5.190;-8.034731;0.765248
5.200;-8.031636;0.763632
5.210;-8.029735;0.763896
5.220;-8.028669;0.765658
5.230;-8.028357;0.768264
5.240;-8.028868;0.770986
5.250;-8.030284;0.773209
5.260;-8.032629;0.774602
5.270;-8.035842;0.775240
5.280;-8.039766;0.775598
5.290;-8.044153;0.776368
5.300;-8.048686;0.778142
5.310;-8.053014;0.781076
5.320;-8.056795;0.784739
5.330;-8.059750;0.788249
5.340;-8.061711;0.790639
5.350;-8.062635;0.791262
5.360;-8.062588;0.790038
5.370;-8.061739;0.787446
5.380;-8.060398;0.784309
5.390;-8.059046;0.781509
5.400;-8.058274;0.779721
5.410;-8.058610;0.779275
5.420;-8.060302;0.780147
5.430;-8.063195;0.782038
5.440;-8.066763;0.784482
5.450;-8.070276;0.786920
5.460;-8.073027;0.788786
5.470;-8.074508;0.789596
5.480;-8.074498;0.789037
5.490;-8.073051;0.787032
5.500;-8.070418;0.783759
5.510;-8.066918;0.779620
5.520;-8.062786;0.775153
5.530;-8.058093;0.770920
5.540;-8.052747;0.767427
5.550;-8.046593;0.765094
5.560;-8.039531;0.764270
5.570;-8.031613;0.765217
5.580;-8.023102;0.768026
5.590;-8.014487;0.772472
5.600;-8.006443;0.777895
5.610;-7.999692;0.783261
5.620;-7.994778;0.787425
5.630;-7.991792;0.789503
5.640;-7.990163;0.789205
5.650;-7.988646;0.786994
5.660;-7.985584;0.783992
5.670;-7.979445;0.781656
5.680;-7.969457;0.781314
5.690;-7.956052;0.783744
5.700;-7.940900;0.788973
5.710;-7.926461;0.796343
5.720;-7.915263;0.804812
5.730;-7.909187;0.813329
5.740;-7.909002;0.821106
5.750;-7.914264;0.827714
5.760;-7.923533;0.833007
5.770;-7.934763;0.836995
5.780;-7.945720;0.839759
5.790;-7.954341;0.841420
5.800;-7.959047;0.842153
5.810;-7.958996;0.842180
5.820;-7.954226;0.841738
5.830;-7.945620;0.841015
5.840;-7.934643;0.840118
5.850;-7.922965;0.839084
5.860;-7.912085;0.837950
5.870;-7.903086;0.836869
5.880;-7.896538;0.836158
5.890;-7.892517;0.836250
5.900;-7.890721;0.837525
5.910;-7.890637;0.840132
5.920;-7.891722;0.843889
5.930;-7.893526;0.848288
5.940;-7.895756;0.852617
5.950;-7.898291;0.856160
5.960;-7.901140;0.858447
5.970;-7.904354;0.859431
5.980;-7.907931;0.859497
5.990;-7.911760;0.859266
6.000;-7.915650;0.859299
6.010;-7.919389;0.859868
6.020;-7.922780;0.860910
6.030;-7.925627;0.862187
6.040;-7.927726;0.863491
6.050;-7.928925;0.864772
6.060;-7.929219;0.866090
6.070;-7.928827;0.867475
6.080;-7.928165;0.868783
6.090;-7.927732;0.869674
6.100;-7.927974;0.869753
6.110;-7.929177;0.868841
6.120;-7.931408;0.867221
6.130;-7.934489;0.865682
6.140;-7.938004;0.865227
6.150;-7.941376;0.866602
6.160;-7.944012;0.869900
6.170;-7.945447;0.874492
6.180;-7.945443;0.879303
6.190;-7.944040;0.883238
6.200;-7.941578;0.885539
6.210;-7.938664;0.885917
6.220;-7.936030;0.884447
6.230;-7.934243;0.881365
6.240;-7.933422;0.876947
6.250;-7.933103;0.871535
6.260;-7.932421;0.865610
6.270;-7.930548;0.859796
6.280;-7.927161;0.854743
6.290;-7.922664;0.850943
6.300;-7.918014;0.848578
6.310;-7.914267;0.847491
6.320;-7.912103;0.847293
6.330;-7.911597;0.847565
6.340;-7.912298;0.848083
6.350;-7.913533;0.848921
6.360;-7.914707;0.850387
6.370;-7.915446;0.852794
6.380;-7.915563;0.856178
6.390;-7.914952;0.860128
6.400;-7.913532;0.863822
6.410;-7.911255;0.866275
6.420;-7.908180;0.866694
6.430;-7.904544;0.864764
6.440;-7.900779;0.860762
6.450;-7.897461;0.855475
6.460;-7.895186;0.849963
6.470;-7.894448;0.845238
6.480;-7.895549;0.841950
6.490;-7.898541;0.840184
6.500;-7.903199;0.839447
6.510;-7.909049;0.838877
6.520;-7.915468;0.837588
6.530;-7.921830;0.835036
6.540;-7.927637;0.831247
6.550;-7.932565;0.826831
6.560;-7.936417;0.822756
6.570;-7.939030;0.819973
6.580;-7.940206;0.819043
6.590;-7.939727;0.819959
6.600;-7.937457;0.822227
6.610;-7.933490;0.825141
6.620;-7.928270;0.828089
6.630;-7.922582;0.830736
6.640;-7.917406;0.833028
6.650;-7.913627;0.835089
6.660;-7.911749;0.837090
6.670;-7.911730;0.839167
6.680;-7.913038;0.841388
6.690;-7.914881;0.843722
6.700;-7.916502;0.846054
6.710;-7.917413;0.848261
6.720;-7.917489;0.850313
6.730;-7.916918;0.852307
6.740;-7.916088;0.854377
6.750;-7.915409;0.856534
6.760;-7.915143;0.858578
6.770;-7.915294;0.860125
6.780;-7.915635;0.860726
6.790;-7.915900;0.860021
6.800;-7.916041;0.857845
6.810;-7.916340;0.854278
6.820;-7.917275;0.849634
6.830;-7.919203;0.844380
6.840;-7.922080;0.839008
6.850;-7.925436;0.833925
6.860;-7.928602;0.829424
6.870;-7.931045;0.825740
6.880;-7.932579;0.823134
6.890;-7.933357;0.821873
6.900;-7.933686;0.822118
6.910;-7.933830;0.823791
6.920;-7.933922;0.826527
6.930;-7.933976;0.829782
6.940;-7.933907;0.833051
6.950;-7.933544;0.836078
6.960;-7.932694;0.838928
6.970;-7.931299;0.841869
6.980;-7.929583;0.845143
6.990;-7.928078;0.848769
7.000;-7.927413;0.852440
7.010;-7.928005;0.855584
7.020;-7.929822;0.857556
7.030;-7.932393;0.857911
7.040;-7.935015;0.856648
7.050;-7.937006;0.854295
7.060;-7.937873;0.851808
7.070;-7.937388;0.850300
7.080;-7.935589;0.850669
7.090;-7.932756;0.853245
7.100;-7.929369;0.857607
7.110;-7.926026;0.862684
7.120;-7.923336;0.867125
7.130;-7.921781;0.869747
7.140;-7.921590;0.869861
7.150;-7.922671;0.867348
7.160;-7.924639;0.862566
7.170;-7.926916;0.856228
7.180;-7.928875;0.849314
7.190;-7.930025;0.842961
7.200;-7.930197;0.838267
7.210;-7.929691;0.835994
7.220;-7.929242;0.836306
7.230;-7.929755;0.838684
7.240;-7.931908;0.842122
7.250;-7.935837;0.845494
7.260;-7.941093;0.847924
7.270;-7.946882;0.848979
7.280;-7.952402;0.848653
7.290;-7.957097;0.847223
7.300;-7.960711;0.845047
7.310;-7.963196;0.842433
7.320;-7.964581;0.839616
7.330;-7.964871;0.836814
7.340;-7.964033;0.834261
7.350;-7.962081;0.832167
7.360;-7.959198;0.830602
7.370;-7.955801;0.829395
7.380;-7.952481;0.828125
7.390;-7.949865;0.826222
7.400;-7.948462;0.823141
7.410;-7.948606;0.818532
7.420;-7.950468;0.812363
7.430;-7.954071;0.804966
7.440;-7.959264;0.797022
7.450;-7.965644;0.789462
7.460;-7.972524;0.783274
7.470;-7.979007;0.779242
7.480;-7.984183;0.777675
7.490;-7.987379;0.778257
7.500;-7.988376;0.780089
7.510;-7.987492;0.781936
7.520;-7.985498;0.782605
7.530;-7.983393;0.781323
7.540;-7.982128;0.777964
7.550;-7.982368;0.773036
7.560;-7.984359;0.767445
7.570;-7.987938;0.762133
7.580;-7.992647;0.757747
7.590;-7.997864;0.754462
7.600;-8.002912;0.751988
7.610;-8.007120;0.749753
7.620;-8.009881;0.747163
7.630;-8.010754;0.743830
7.640;-8.009583;0.739691
7.650;-8.006620;0.735008
7.660;-8.002536;0.730251
7.670;-7.998305;0.725899
7.680;-7.994976;0.722251
7.690;-7.993447;0.719336
7.700;-7.994268;0.716963
7.710;-7.997512;0.714868
7.720;-8.002700;0.712855
7.730;-8.008850;0.710862
7.740;-8.014700;0.708936
7.750;-8.019087;0.707140
7.760;-8.021356;0.705466
7.770;-8.021635;0.703827
7.780;-8.020824;0.702131
7.790;-8.020306;0.700386
7.800;-8.021492;0.698729
7.810;-8.025376;0.697374
7.820;-8.032266;0.696514
7.830;-8.041738;0.696255
7.840;-8.052776;0.696589
7.850;-8.064024;0.697407
7.860;-8.074075;0.698522
7.870;-8.081751;0.699701
7.880;-8.086361;0.700696
7.890;-8.087868;0.701304
7.900;-8.086912;0.701479
7.910;-8.084621;0.701456
7.920;-8.082275;0.701775
7.930;-8.080980;0.703138
7.940;-8.081495;0.706117
7.950;-8.084250;0.710847
7.960;-8.089455;0.716880
7.970;-8.097126;0.723288
7.980;-8.107017;0.728991
