Time[s];COPx[cm];COPy[cm]
0.010;0.145477;-0.335878
0.020;0.167583;-0.337565
0.030;0.188392;-0.338917
0.040;0.206899;-0.339636
0.050;0.222568;-0.339466
0.060;0.235321;-0.338275
0.070;0.245439;-0.336108
0.080;0.253493;-0.333151
0.090;0.260320;-0.329638
0.100;0.267033;-0.325740
0.110;0.274982;-0.321495
0.120;0.285589;-0.316790
0.130;0.300057;-0.311404
0.140;0.319010;-0.305137
0.150;0.342228;-0.297986
0.160;0.368580;-0.290286
0.170;0.396214;-0.282725
0.180;0.422938;-0.276202
0.190;0.446671;-0.271594
0.200;0.465866;-0.269516
0.210;0.479779;-0.270166
0.220;0.488544;-0.273292
0.230;0.493052;-0.278273
0.240;0.494679;-0.284296
0.250;0.494976;-0.290539
0.260;0.495368;-0.296323
0.270;0.496936;-0.301202
0.280;0.500295;-0.304991
0.290;0.505579;-0.307752
0.300;0.512516;-0.309738
0.310;0.520562;-0.311289
0.320;0.529029;-0.312729
0.330;0.537198;-0.314288
0.340;0.544421;-0.316082
0.350;0.550231;-0.318142
0.360;0.554395;-0.320476
0.370;0.556870;-0.323107
0.380;0.557698;-0.326058
0.390;0.556963;-0.329299
0.400;0.554843;-0.332711
0.410;0.551695;-0.336125
0.420;0.548026;-0.339405
0.430;0.544323;-0.342518
0.440;0.540811;-0.345537
0.450;0.537322;-0.348596
0.460;0.533367;-0.351812
0.470;0.528370;-0.355191
0.480;0.521922;-0.358569
0.490;0.513926;-0.361648
0.500;0.504578;-0.364136
0.510;0.494224;-0.365922
0.520;0.483202;-0.367179
0.530;0.471735;-0.368339
0.540;0.459915;-0.369948
0.550;0.447752;-0.372489
0.560;0.435232;-0.376206
0.570;0.422348;-0.381000
0.580;0.409110;-0.386419
0.590;0.395549;-0.391782
0.600;0.381747;-0.396404
0.610;0.367877;-0.399846
0.620;0.354229;-0.402108
0.630;0.341203;-0.403666
0.640;0.329254;-0.405349
0.650;0.318779;-0.408069
0.660;0.309992;-0.412502
0.670;0.302825;-0.418843
0.680;0.296897;-0.426712
0.690;0.291620;-0.435238
0.700;0.286388;-0.443278
0.710;0.280782;-0.449718
0.720;0.274674;-0.453782
0.730;0.268189;-0.455240
0.740;0.261581;-0.454425
0.750;0.255104;-0.452061
0.760;0.248930;-0.448999
0.770;0.243120;-0.446005
0.780;0.237647;-0.443643
0.790;0.232495;-0.442257
0.800;0.227767;-0.441970
0.810;0.223735;-0.442709
0.820;0.220769;-0.444256
0.830;0.219138;-0.446339
0.840;0.218804;-0.448722
0.850;0.219304;-0.451254
0.860;0.219813;-0.453879
0.870;0.219365;-0.456592
0.880;0.217138;-0.459393
0.890;0.212686;-0.462247
0.900;0.206024;-0.465108
0.910;0.197556;-0.467985
0.920;0.187940;-0.470984
0.930;0.177940;-0.474296
0.940;0.168311;-0.478125
0.950;0.159681;-0.482617
0.960;0.152416;-0.487818
0.970;0.146488;-0.493687
0.980;0.141431;-0.500136
0.990;0.136427;-0.507090
1.000;0.130529;-0.514507
1.010;0.122949;-0.522372
1.020;0.113301;-0.530670
1.030;0.101724;-0.539344
1.040;0.088854;-0.548253
1.050;0.075665;-0.557157
1.060;0.063251;-0.565732
1.070;0.052613;-0.573635
1.080;0.044486;-0.580578
1.090;0.039219;-0.586390
1.100;0.036734;-0.591042
1.110;0.036621;-0.594642
1.120;0.038341;-0.597392
1.130;0.041437;-0.599524
1.140;0.045635;-0.601248
1.150;0.050773;-0.602737
1.160;0.056626;-0.604166
1.170;0.062744;-0.605778
1.180;0.068415;-0.607901
1.190;0.072776;-0.610864
1.200;0.075053;-0.614859
1.210;0.074820;-0.619796
1.220;0.072187;-0.625284
1.230;0.067800;-0.630724
1.240;0.062657;-0.635499
1.250;0.057821;-0.639122
1.260;0.054168;-0.641321
1.270;0.052263;-0.642068
1.280;0.052377;-0.641571
1.290;0.054559;-0.640230
1.300;0.058710;-0.638566
1.310;0.064618;-0.637113
1.320;0.071987;-0.636317
1.330;0.080482;-0.636466
1.340;0.089779;-0.637644
1.350;0.099596;-0.639705
1.360;0.109674;-0.642249
1.370;0.119733;-0.644659
1.380;0.129420;-0.646247
1.390;0.138299;-0.646473
1.400;0.145912;-0.645125
1.410;0.151913;-0.642354
1.420;0.156222;-0.638535
1.430;0.159098;-0.634035
1.440;0.161068;-0.629034
1.450;0.162743;-0.623518
1.460;0.164617;-0.617420
1.470;0.166964;-0.610775
1.480;0.169861;-0.603802
1.490;0.173260;-0.596864
1.500;0.177046;-0.590382
1.510;0.181005;-0.584772
1.520;0.184743;-0.580426
1.530;0.187608;-0.577686
1.540;0.188726;-0.576764
1.550;0.187146;-0.577584
1.560;0.182067;-0.579675
1.570;0.173054;-0.582185
1.580;0.160186;-0.584078
1.590;0.144106;-0.584477
1.600;0.125937;-0.583018
1.610;0.107081;-0.580097
1.620;0.088904;-0.576828
1.630;0.072427;-0.574713
1.640;0.058092;-0.575143
1.650;0.045707;-0.578983
1.660;0.034566;-0.586373
1.670;0.023693;-0.596787
1.680;0.012151;-0.609274
1.690;-0.000676;-0.622760
1.700;-0.014921;-0.636285
1.710;-0.030216;-0.649117
1.720;-0.045837;-0.660747
1.730;-0.060931;-0.670853
1.740;-0.074726;-0.679280
1.750;-0.086646;-0.686070
1.760;-0.096347;-0.691514
1.770;-0.103745;-0.696161
1.780;-0.109077;-0.700708
1.790;-0.112951;-0.705799
1.800;-0.116304;-0.711778
1.810;-0.120195;-0.718516
1.820;-0.125496;-0.725395
1.830;-0.132608;-0.731474
1.840;-0.141354;-0.735831
1.850;-0.151087;-0.737933
1.860;-0.160960;-0.737894
1.870;-0.170204;-0.736498
1.880;-0.178289;-0.734967
1.890;-0.184934;-0.734581
1.900;-0.190009;-0.736283
1.910;-0.193434;-0.740440
1.920;-0.195140;-0.746786
1.930;-0.195127;-0.754575
1.940;-0.193574;-0.762872
1.950;-0.190916;-0.770899
1.960;-0.187815;-0.778285
1.970;-0.185013;-0.785092
1.980;-0.183126;-0.791609
1.990;-0.182436;-0.798062
2.000;-0.182786;-0.804438
2.010;-0.183602;-0.810476
2.020;-0.184054;-0.815769
2.030;-0.183275;-0.819869
2.040;-0.180586;-0.822364
2.050;-0.175646;-0.822919
2.060;-0.168490;-0.821299
2.070;-0.159428;-0.817385
2.080;-0.148835;-0.811201
2.090;-0.136922;-0.802995
2.100;-0.123633;-0.793297
2.110;-0.108744;-0.782906
2.120;-0.092128;-0.772743
2.130;-0.074046;-0.763594
2.140;-0.055293;-0.755869
2.150;-0.037082;-0.749460
2.160;-0.020720;-0.743797
2.170;-0.007207;-0.738090
2.180;0.003058;-0.731661
2.190;0.010344;-0.724204
2.200;0.015422;-0.715813
2.210;0.019276;-0.706784
2.220;0.022805;-0.697359
2.230;0.026611;-0.687602
2.240;0.030891;-0.677483
2.250;0.035435;-0.667076
2.260;0.039706;-0.656725
2.270;0.043025;-0.647036
2.280;0.044810;-0.638702
2.290;0.044786;-0.632226
2.300;0.043066;-0.627699
2.310;0.040108;-0.624735
2.320;0.036584;-0.622614
2.330;0.033225;-0.620559
2.340;0.030677;-0.618017
2.350;0.029376;-0.614790
2.360;0.029473;-0.610962
2.370;0.030807;-0.606674
2.380;0.032944;-0.601942
2.390;0.035267;-0.596651
2.400;0.037110;-0.590713
2.410;0.037907;-0.584229
2.420;0.037323;-0.577539
2.430;0.035311;-0.571148
2.440;0.032090;-0.565580
2.450;0.028048;-0.561235
2.460;0.023620;-0.558258
2.470;0.019196;-0.556457
2.480;0.015094;-0.555300
2.490;0.011591;-0.554057
2.500;0.008988;-0.552053
2.510;0.007640;-0.548938
2.520;0.007907;-0.544844
2.530;0.010057;-0.540370
2.540;0.014153;-0.536377
2.550;0.019993;-0.533705
2.560;0.027115;-0.532884
2.570;0.034859;-0.533976
2.580;0.042453;-0.536590
2.590;0.049114;-0.540071
2.600;0.054145;-0.543774
2.610;0.057045;-0.547290
2.620;0.057607;-0.550547
2.630;0.055978;-0.553741
2.640;0.052655;-0.557164
2.650;0.048433;-0.561015
2.660;0.044297;-0.565290
2.670;0.041265;-0.569757
2.680;0.040146;-0.573993
2.690;0.041279;-0.577458
2.700;0.044359;-0.579630
2.710;0.048469;-0.580186
2.720;0.052341;-0.579154
2.730;0.054758;-0.576983
2.740;0.054934;-0.574461
2.750;0.052715;-0.572519
2.760;0.048543;-0.571941
2.770;0.043234;-0.573095
2.780;0.037672;-0.575788
2.790;0.032541;-0.579339
2.800;0.028163;-0.582857
2.810;0.024451;-0.585589
2.820;0.020971;-0.587160
2.830;0.017091;-0.587597
2.840;0.012209;-0.587168
2.850;0.006028;-0.586145
2.860;-0.001244;-0.584666
2.870;-0.008846;-0.582757
2.880;-0.015631;-0.580475
2.890;-0.020391;-0.578038
2.900;-0.022222;-0.575842
2.910;-0.020810;-0.574317
2.920;-0.016538;-0.573733
2.930;-0.010395;-0.574066
2.940;-0.003737;-0.575026
2.950;0.002050;-0.576214
2.960;0.005870;-0.577278
2.970;0.007165;-0.577969
2.980;0.006021;-0.578097
2.990;0.003129;-0.577485
3.000;-0.000380;-0.576001
3.010;-0.003238;-0.573634
3.020;-0.004388;-0.570558
3.030;-0.003304;-0.567115
3.040;-0.000171;-0.563719
3.050;0.004152;-0.560717
3.060;0.008356;-0.558288
3.070;0.011061;-0.556405
3.080;0.011230;-0.554919
3.090;0.008501;-0.553694
3.100;0.003275;-0.552740
3.110;-0.003461;-0.552250
3.120;-0.010509;-0.552523
3.130;-0.016854;-0.553822
3.140;-0.021907;-0.556225
3.150;-0.025549;-0.559559
3.160;-0.028027;-0.563439
3.170;-0.029817;-0.567395
3.180;-0.031496;-0.571048
3.190;-0.033626;-0.574238
3.200;-0.036634;-0.577060
3.210;-0.040691;-0.579793
3.220;-0.045647;-0.582759
3.230;-0.051087;-0.586190
3.240;-0.056475;-0.590150
3.250;-0.061321;-0.594532
3.260;-0.065288;-0.599119
3.270;-0.068212;-0.603687
3.280;-0.070074;-0.608100
3.290;-0.070990;-0.612317
3.300;-0.071226;-0.616294
3.310;-0.071206;-0.619863
3.320;-0.071445;-0.622692
3.330;-0.072427;-0.624382
3.340;-0.074465;-0.624638
3.350;-0.077595;-0.623425
3.360;-0.081523;-0.621039
3.370;-0.085661;-0.618090
3.380;-0.089243;-0.615383
3.390;-0.091513;-0.613709
3.400;-0.091949;-0.613599
3.410;-0.090432;-0.615109
3.420;-0.087314;-0.617754
3.430;-0.083359;-0.620617
3.440;-0.079560;-0.622621
3.450;-0.076906;-0.622856
3.460;-0.076161;-0.620835
3.470;-0.077724;-0.616606
3.480;-0.081593;-0.610699
3.490;-0.087399;-0.603909
3.500;-0.094499;-0.597017
3.510;-0.102091;-0.590543
3.520;-0.109373;-0.584651
3.530;-0.115695;-0.579217
3.540;-0.120707;-0.573980
3.550;-0.124421;-0.568700
3.560;-0.127157;-0.563255
3.570;-0.129371;-0.557680
3.580;-0.131433;-0.552149
3.590;-0.133435;-0.546918
3.600;-0.135093;-0.542247
3.610;-0.135792;-0.538364
3.620;-0.134793;-0.535460
3.630;-0.131525;-0.533691
3.640;-0.125855;-0.533132
3.650;-0.118179;-0.533735
3.660;-0.109271;-0.535317
3.670;-0.099954;-0.537630
3.680;-0.090765;-0.540466
3.690;-0.081773;-0.543718
3.700;-0.072630;-0.547364
3.710;-0.062814;-0.551376
3.720;-0.051948;-0.555631
3.730;-0.040017;-0.559901
3.740;-0.027393;-0.563930
3.750;-0.014631;-0.567577
3.760;-0.002166;-0.570949
3.770;0.009939;-0.574400
3.780;0.022063;-0.578406
3.790;0.034906;-0.583356
3.800;0.049236;-0.589388
3.810;0.065590;-0.596343
3.820;0.084041;-0.603832
3.830;0.104102;-0.611347
3.840;0.124815;-0.618370
3.850;0.144979;-0.624465
3.860;0.163443;-0.629332
3.870;0.179340;-0.632833
3.880;0.192195;-0.634986
3.890;0.201919;-0.635942
3.900;0.208762;-0.635978
3.910;0.213279;-0.635489
3.920;0.216290;-0.634952
3.930;0.218790;-0.634839
3.940;0.221760;-0.635468
3.950;0.225948;-0.636843
3.960;0.231674;-0.638603
3.970;0.238743;-0.640154
3.980;0.246530;-0.640902
3.990;0.254192;-0.640484
4.000;0.260929;-0.638861
4.010;0.266179;-0.636256
4.020;0.269672;-0.633011
4.030;0.271341;-0.629473
4.040;0.271192;-0.625951
4.050;0.269256;-0.622756
4.060;0.265648;-0.620254
4.070;0.260676;-0.618865
4.080;0.254882;-0.618968
4.090;0.248940;-0.620727
4.100;0.243471;-0.623905
4.110;0.238864;-0.627791
4.120;0.235214;-0.631332
4.130;0.232375;-0.633433
4.140;0.230098;-0.633324
4.150;0.228135;-0.630836
4.160;0.226316;-0.626467
4.170;0.224570;-0.621230
4.180;0.222944;-0.616330
4.190;0.221603;-0.612789
4.200;0.220814;-0.611132
4.210;0.220878;-0.611248
4.220;0.222024;-0.612497
4.230;0.224280;-0.613993
4.240;0.227396;-0.614927
4.250;0.230879;-0.614802
4.260;0.234150;-0.613499
4.270;0.236788;-0.611214
4.280;0.238722;-0.608298
4.290;0.240280;-0.605083
4.300;0.242038;-0.601754
4.310;0.244542;-0.598303
4.320;0.248029;-0.594598
4.330;0.252264;-0.590507
4.340;0.256576;-0.586027
4.350;0.260072;-0.581361
4.360;0.261954;-0.576872
4.370;0.261790;-0.572928
4.380;0.259646;-0.569694
4.390;0.256029;-0.566978
4.400;0.251689;-0.564236
4.410;0.247351;-0.560736
4.420;0.243477;-0.555829
4.430;0.240133;-0.549217
4.440;0.237018;-0.541123
4.450;0.233657;-0.532271
4.460;0.229681;-0.523681
4.470;0.225074;-0.516328
4.480;0.220272;-0.510802
4.490;0.216023;-0.507106
4.500;0.213067;-0.504675
4.510;0.211774;-0.502577
4.520;0.211954;-0.499839
4.530;0.212910;-0.495763
4.540;0.213699;-0.490148
4.550;0.213481;-0.483329
4.560;0.211768;-0.476018
4.570;0.208522;-0.469039
4.580;0.204084;-0.463092
4.590;0.199031;-0.458615
4.600;0.194005;-0.455745
4.610;0.189567;-0.454325
4.620;0.186087;-0.453954
4.630;0.183684;-0.454110
4.640;0.182226;-0.454315
4.650;0.181377;-0.454293
4.660;0.180688;-0.454006
4.670;0.179729;-0.453563
4.680;0.178227;-0.453048
4.690;0.176179;-0.452381
4.700;0.173922;-0.451280
4.710;0.172107;-0.449361
4.720;0.171546;-0.446330
4.730;0.172934;-0.442156
4.740;0.176530;-0.437110
4.750;0.181960;-0.431638
4.760;0.188273;-0.426160
4.770;0.194254;-0.420919
4.780;0.198875;-0.415976
4.790;0.201690;-0.411314
4.800;0.202997;-0.406950
4.810;0.203686;-0.402964
4.820;0.204828;-0.399406
4.830;0.207169;-0.396181
4.840;0.210763;-0.393027
4.850;0.214884;-0.389621
4.860;0.218250;-0.385755
4.870;0.219463;-0.381447
4.880;0.217473;-0.376910
4.890;0.211935;-0.372435
4.900;0.203328;-0.368249
4.910;0.192820;-0.364434
4.920;0.181924;-0.360914
4.930;0.172076;-0.357516
4.940;0.164299;-0.354060
4.950;0.159042;-0.350451
4.960;0.156259;-0.346703
4.970;0.155636;-0.342922
4.980;0.156852;-0.339280
4.990;0.159732;-0.336002
5.000;0.164237;-0.333347
5.010;0.170324;-0.331582
5.020;0.177792;-0.330889
5.030;0.186228;-0.331277
5.040;0.195065;-0.332528
5.050;0.203727;-0.334280
5.060;0.211789;-0.336192
5.070;0.219118;-0.338096
5.080;0.225947;-0.340028
5.090;0.232843;-0.342114
5.100;0.240548;-0.344362
5.110;0.249705;-0.346502
5.120;0.260602;-0.347981
5.130;0.273056;-0.348167
5.140;0.286512;-0.346688
5.150;0.300314;-0.343718
5.160;0.314005;-0.340016
5.170;0.327489;-0.336653
5.180;0.340995;-0.334556
5.190;0.354876;-0.334109
5.200;0.369356;-0.335028
5.210;0.384343;-0.336556
5.220;0.399376;-0.337854
5.230;0.413732;-0.338381
5.240;0.426659;-0.338074
5.250;0.437649;-0.337299
5.260;0.446661;-0.336614
5.270;0.454206;-0.336482
5.280;0.461242;-0.337064
5.290;0.468928;-0.338168
5.300;0.478305;-0.339329
5.310;0.490022;-0.340000
5.320;0.504200;-0.339741
5.330;0.520466;-0.338390
5.340;0.538095;-0.336146
5.350;0.556171;-0.333537
5.360;0.573705;-0.331304
5.370;0.589716;-0.330194
5.380;0.603335;-0.330724
5.390;0.613977;-0.332979
5.400;0.621505;-0.336499
5.410;0.626295;-0.340339
5.420;0.629120;-0.343327
5.430;0.630884;-0.344448
5.440;0.632347;-0.343196
5.450;0.633957;-0.339742
5.460;0.635827;-0.334847
5.470;0.637846;-0.329577
5.480;0.639837;-0.324918
5.490;0.641702;-0.321442
5.500;0.643491;-0.319163
5.510;0.645375;-0.317622
5.520;0.647557;-0.316181
5.530;0.650182;-0.314357
5.540;0.653291;-0.312082
5.550;0.656792;-0.309747
5.560;0.660459;-0.308012
5.570;0.663956;-0.307457
5.580;0.666924;-0.308272
5.590;0.669119;-0.310144
5.600;0.670547;-0.312400
5.610;0.671471;-0.314318
5.620;0.672276;-0.315438
5.630;0.673243;-0.315706
5.640;0.674368;-0.315400
5.650;0.675312;-0.314905
5.660;0.675558;-0.314471
5.670;0.674685;-0.314083
5.680;0.672655;-0.313480
5.690;0.669933;-0.312268
5.700;0.667394;-0.310058
5.710;0.666027;-0.306578
5.720;0.666613;-0.301725
5.730;0.669512;-0.295573
5.740;0.674674;-0.288365
5.750;0.681812;-0.280519
5.760;0.690610;-0.272607
5.770;0.700825;-0.265271
5.780;0.712243;-0.259079
5.790;0.724538;-0.254364
5.800;0.737153;-0.251139
5.810;0.749275;-0.249106
5.820;0.759967;-0.247758
5.830;0.768380;-0.246525
5.840;0.774027;-0.244931
5.850;0.776988;-0.242691
5.860;0.777968;-0.239725
5.870;0.778141;-0.236103
5.880;0.778823;-0.231937
5.890;0.781099;-0.227306
5.900;0.785553;-0.222222
5.910;0.792194;-0.216664
5.920;0.800593;-0.210664
5.930;0.810171;-0.204395
5.940;0.820515;-0.198171
5.950;0.831554;-0.192355
5.960;0.843535;-0.187173
5.970;0.856806;-0.182561
5.980;0.871535;-0.178128
5.990;0.887524;-0.173284
6.000;0.904165;-0.167467
6.010;0.920569;-0.160356
6.020;0.935785;-0.152008
6.030;0.949051;-0.142843
6.040;0.959988;-0.133483
6.050;0.968685;-0.124470
6.060;0.975640;-0.115971
6.070;0.981545;-0.107593
6.080;0.986974;-0.098451
6.090;0.992086;-0.087489
6.100;0.996460;-0.073987
6.110;0.999174;-0.057998
6.120;0.999081;-0.040502
6.130;0.995232;-0.023141
6.140;0.987263;-0.007645
6.150;0.975640;0.004788
6.160;0.961666;0.013877
6.170;0.947243;0.020264
6.180;0.934437;0.025174
6.190;0.924942;0.029923
6.200;0.919594;0.035485
6.210;0.918099;0.042237
6.220;0.919110;0.049956
6.230;0.920667;0.057986
6.240;0.920856;0.065502
6.250;0.918439;0.071784
6.260;0.913205;0.076439
6.270;0.905937;0.079499
6.280;0.898034;0.081388
6.290;0.890961;0.082783
6.300;0.885721;0.084427
6.310;0.882554;0.086966
6.320;0.880942;0.090817
6.330;0.879894;0.096089
6.340;0.878366;0.102572
6.350;0.875647;0.109811
6.360;0.871555;0.117224
6.370;0.866423;0.124214
6.380;0.860912;0.130234
6.390;0.855773;0.134840
6.400;0.851649;0.137753
6.410;0.848945;0.138923
6.420;0.847771;0.138585
6.430;0.847889;0.137261
6.440;0.848689;0.135669
6.450;0.849235;0.134528
6.460;0.848448;0.134326
6.470;0.845410;0.135165
6.480;0.839708;0.136770
6.490;0.831642;0.138668
6.500;0.822208;0.140431
6.510;0.812808;0.141855
6.520;0.804818;0.142989
6.530;0.799188;0.143989
6.540;0.796212;0.144922
6.550;0.795524;0.145634
6.560;0.796287;0.145806
6.570;0.797482;0.145155
6.580;0.798190;0.143684
6.590;0.797780;0.141800
6.600;0.795991;0.140215
6.610;0.792911;0.139681
6.620;0.788910;0.140700
6.630;0.784538;0.143345
6.640;0.780390;0.147275
6.650;0.776975;0.151898
6.660;0.774619;0.156594
6.670;0.773424;0.160918
6.680;0.773271;0.164725
6.690;0.773816;0.168157
6.700;0.774505;0.171533
6.710;0.774628;0.175166
6.720;0.773473;0.179252
6.730;0.770537;0.183839
6.740;0.765698;0.188877
6.750;0.759246;0.194269
6.760;0.751773;0.199873
6.770;0.743927;0.205483
6.780;0.736168;0.210836
6.790;0.728597;0.215659
6.800;0.720952;0.219766
6.810;0.712796;0.223132
6.820;0.703800;0.225905
6.830;0.694004;0.228322
6.840;0.683887;0.230569
6.850;0.674219;0.232689
6.860;0.665757;0.234559
6.870;0.658952;0.235933
6.880;0.653791;0.236525
6.890;0.649820;0.236116
6.900;0.646342;0.234684
6.910;0.642691;0.232484
6.920;0.638467;0.230007
6.930;0.633641;0.227773
6.940;0.628504;0.226053
6.950;0.623500;0.224691
6.960;0.619061;0.223147
6.970;0.615478;0.220744
6.980;0.612835;0.216993
6.990;0.610992;0.211808
7.000;0.609591;0.205478
7.010;0.608137;0.198437
7.020;0.606122;0.190983
7.030;0.603149;0.183128
7.040;0.598991;0.174663
7.050;0.593558;0.165359
7.060;0.586844;0.155171
7.070;0.578929;0.144360
7.080;0.570051;0.133490
7.090;0.560685;0.123310
7.100;0.551517;0.114536
7.110;0.543265;0.107614
7.120;0.536439;0.102580
7.130;0.531156;0.099108
7.140;0.527114;0.096687
7.150;0.523722;0.094837
7.160;0.520294;0.093222
7.170;0.516252;0.091631
7.180;0.511264;0.089871
7.190;0.505317;0.087674
7.200;0.498722;0.084705
7.210;0.492035;0.080656
7.220;0.485931;0.075378
7.230;0.481041;0.068975
7.240;0.477821;0.061796
7.250;0.476458;0.054327
7.260;0.476834;0.046995
7.270;0.478544;0.039981
7.280;0.480991;0.033141
7.290;0.483534;0.026073
7.300;0.485683;0.018280
7.310;0.487258;0.009349
7.320;0.488490;-0.000937
7.330;0.489983;-0.012542
7.340;0.492556;-0.025203
7.350;0.497007;-0.038543
7.360;0.503894;-0.052251
7.370;0.513401;-0.066278
7.380;0.525315;-0.080896
7.390;0.539098;-0.096586
7.400;0.554012;-0.113773
7.410;0.569263;-0.132562
7.420;0.584133;-0.152588
7.430;0.598075;-0.173010
7.440;0.610771;-0.192655
7.450;0.622118;-0.210255
7.460;0.632165;-0.224758
7.470;0.641019;-0.235608
7.480;0.648759;-0.242876
7.490;0.655391;-0.247175
7.500;0.660862;-0.249371
7.510;0.665106;-0.250252
7.520;0.668074;-0.250289
7.530;0.669756;-0.249553
7.540;0.670191;-0.247773
7.550;0.669507;-0.244487
7.560;0.667990;-0.239250
7.570;0.666141;-0.231871
7.580;0.664629;-0.222591
7.590;0.664133;-0.212122
7.600;0.665087;-0.201499
7.610;0.667483;-0.191798
7.620;0.670826;-0.183843
7.630;0.674311;-0.178019
7.640;0.677106;-0.174226
7.650;0.678621;-0.172000
7.660;0.678628;-0.170753
7.670;0.677246;-0.170029
7.680;0.674823;-0.169658
7.690;0.671800;-0.169709
7.700;0.668587;-0.170272
7.710;0.665499;-0.171215
7.720;0.662721;-0.172086
7.730;0.660318;-0.172246
7.740;0.658278;-0.171154
7.750;0.656569;-0.168641
7.760;0.655199;-0.165024
7.770;0.654257;-0.161007
7.780;0.653906;-0.157425
7.790;0.654358;-0.154960
7.800;0.655810;-0.153971
7.810;0.658372;-0.154469
7.820;0.661962;-0.156200
7.830;0.666248;-0.158722
7.840;0.670651;-0.161448
7.850;0.674447;-0.163684
7.860;0.676949;-0.164715
7.870;0.677680;-0.163975
7.880;0.676469;-0.161224
7.890;0.673448;-0.156645
7.900;0.668968;-0.150762
7.910;0.663479;-0.144225
7.920;0.657424;-0.137582
7.930;0.651186;-0.131161
7.940;0.645102;-0.125084
7.950;0.639516;-0.119346
7.960;0.634812;-0.113877
7.970;0.631403;-0.108573
7.980;0.629641;-0.103339
