Time[s];COPx[cm];COPy[cm]
0.010;0.207263;-0.427951
0.020;0.196517;-0.414310
0.030;0.186365;-0.400407
0.040;0.177148;-0.385996
0.050;0.168674;-0.370852
0.060;0.160250;-0.354775
0.070;0.150871;-0.337591
0.080;0.139476;-0.319141
0.090;0.125165;-0.299249
0.100;0.107329;-0.277706
0.110;0.085695;-0.254307
0.120;0.060374;-0.228920
0.130;0.031908;-0.201562
0.140;0.001323;-0.172374
0.150;-0.029904;-0.141540
0.160;-0.060013;-0.109196
0.170;-0.087246;-0.075408
0.180;-0.110183;-0.040223
0.190;-0.128056;-0.003757
0.200;-0.140910;0.033740
0.210;-0.149571;0.071849
0.220;-0.155398;0.109988
0.230;-0.159917;0.147442
0.240;-0.164427;0.183427
0.250;-0.169715;0.217186
0.260;-0.175961;0.248100
0.270;-0.182871;0.275816
0.280;-0.189956;0.300293
0.290;-0.196840;0.321746
0.300;-0.203455;0.340493
0.310;-0.210078;0.356781
0.320;-0.217181;0.370688
0.330;-0.225170;0.382165
0.340;-0.234060;0.391165
0.350;-0.243235;0.397795
0.360;-0.251364;0.402380
0.370;-0.256574;0.405418
0.380;-0.256802;0.407438
0.390;-0.250266;0.408826
0.400;-0.235870;0.409660
0.410;-0.213455;0.409658
0.420;-0.183843;0.408304
0.430;-0.148672;0.405112
0.440;-0.110091;0.399888
0.450;-0.070362;0.392835
0.460;-0.031477;0.384435
0.470;0.005158;0.375210
0.480;0.038924;0.365475
0.490;0.070030;0.355216
0.500;0.099402;0.344101
0.510;0.128392;0.331622
0.520;0.158369;0.317277
0.530;0.190282;0.300712
0.540;0.224314;0.281778
0.550;0.259755;0.260531
0.560;0.295148;0.237222
0.570;0.328672;0.212297
0.580;0.358656;0.186399
0.590;0.384073;0.160310
0.600;0.404858;0.134831
0.610;0.421922;0.110600
0.620;0.436833;0.087940
0.630;0.451252;0.066827
0.640;0.466368;0.046988
0.650;0.482509;0.028089
0.660;0.499062;0.009881
0.670;0.514700;-0.007763
0.680;0.527824;-0.024917
0.690;0.537070;-0.041698
0.700;0.541734;-0.058317
0.710;0.541975;-0.075078
0.720;0.538739;-0.092367
0.730;0.533444;-0.110666
0.740;0.527550;-0.130571
0.750;0.522196;-0.152754
0.760;0.518037;-0.177853
0.770;0.515303;-0.206313
0.780;0.514007;-0.238236
0.790;0.514148;-0.273278
0.800;0.515779;-0.310647
0.810;0.518919;-0.349189
0.820;0.523392;-0.387567
0.830;0.528716;-0.424479
0.840;0.534136;-0.458835
0.850;0.538771;-0.489845
0.860;0.541803;-0.517003
0.870;0.542614;-0.540043
0.880;0.540832;-0.558879
0.890;0.536302;-0.573577
0.900;0.529024;-0.584297
0.910;0.519106;-0.591224
0.920;0.506763;-0.594507
0.930;0.492326;-0.594259
0.940;0.476244;-0.590571
0.950;0.459037;-0.583517
0.960;0.441219;-0.573129
0.970;0.423259;-0.559387
0.980;0.405595;-0.542267
0.990;0.388693;-0.521833
1.000;0.373087;-0.498302
1.010;0.359346;-0.472057
1.020;0.347958;-0.443624
1.030;0.339173;-0.413605
1.040;0.332888;-0.382545
1.050;0.328631;-0.350750
1.060;0.325647;-0.318115
1.070;0.323059;-0.284071
1.080;0.320037;-0.247667
1.090;0.315959;-0.207766
1.100;0.310536;-0.163279
1.110;0.303904;-0.113400
1.120;0.296621;-0.057810
1.130;0.289581;0.003193
1.140;0.283846;0.068652
1.150;0.280477;0.137001
1.160;0.280355;0.206212
1.170;0.284034;0.274029
1.180;0.291617;0.338276
1.190;0.302691;0.397181
1.200;0.316366;0.449623
1.210;0.331413;0.495222
1.220;0.346470;0.534216
1.230;0.360259;0.567189
1.240;0.371747;0.594754
1.250;0.380209;0.617287
1.260;0.385229;0.634820
1.270;0.386680;0.647128
1.280;0.384708;0.653955
1.290;0.379724;0.655293
1.300;0.372346;0.651561
1.310;0.363291;0.643587
1.320;0.353259;0.632379
1.330;0.342849;0.618798
1.340;0.332549;0.603286
1.350;0.322764;0.585791
1.360;0.313850;0.565912
1.370;0.306102;0.543178
1.380;0.299713;0.517317
1.390;0.294713;0.488400
1.400;0.290955;0.456824
1.410;0.288137;0.423166
1.420;0.285870;0.388024
1.430;0.283767;0.351925
1.440;0.281478;0.315328
1.450;0.278665;0.278693
1.460;0.274936;0.242552
1.470;0.269812;0.207533
1.480;0.262797;0.174306
1.490;0.253550;0.143421
1.500;0.242070;0.115113
1.510;0.228811;0.089186
1.520;0.214647;0.065084
1.530;0.200683;0.042111
1.540;0.188011;0.019684
1.550;0.177489;-0.002523
1.560;0.169671;-0.024545
1.570;0.164878;-0.046174
1.580;0.163388;-0.067028
1.590;0.165584;-0.086636
1.600;0.171989;-0.104541
1.610;0.183129;-0.120409
1.620;0.199311;-0.134093
1.630;0.220409;-0.145648
1.640;0.245769;-0.155300
1.650;0.274258;-0.163374
1.660;0.304449;-0.170202
1.670;0.334891;-0.175997
1.680;0.364395;-0.180759
1.690;0.392294;-0.184233
1.700;0.418596;-0.185985
1.710;0.443961;-0.185557
1.720;0.469506;-0.182687
1.730;0.496441;-0.177460
1.740;0.525700;-0.170309
1.750;0.557701;-0.161820
1.760;0.592333;-0.152438
1.770;0.629114;-0.142218
1.780;0.667389;-0.130794
1.790;0.706468;-0.117578
1.800;0.745664;-0.102133
1.810;0.784257;-0.084514
1.820;0.821458;-0.065396
1.830;0.856419;-0.045913
1.840;0.888336;-0.027259
1.850;0.916588;-0.010253
1.860;0.940844;0.004947
1.870;0.961047;0.018849
1.880;0.977293;0.032357
1.890;0.989671;0.046364
1.900;0.998178;0.061384
1.910;1.002784;0.077370
1.920;1.003605;0.093772
1.930;1.001104;0.109799
1.940;0.996186;0.124772
1.950;0.990107;0.138394
1.960;0.984194;0.150827
1.970;0.979490;0.162528
1.980;0.976456;0.173939
1.990;0.974888;0.185202
2.000;0.974057;0.196032
2.010;0.973013;0.205817
2.020;0.970891;0.213881
2.030;0.967102;0.219805
2.040;0.961325;0.223606
2.050;0.953373;0.225674
2.060;0.943023;0.226520
2.070;0.929911;0.226494
2.080;0.913545;0.225648
2.090;0.893424;0.223801
2.100;0.869236;0.220717
2.110;0.841058;0.216266
2.120;0.809454;0.210480
2.130;0.775410;0.203502
2.140;0.740055;0.195529
2.150;0.704268;0.186805
2.160;0.668327;0.177652
2.170;0.631788;0.168480
2.180;0.593646;0.159741
2.190;0.552722;0.151877
2.200;0.508101;0.145281
2.210;0.459451;0.140276
2.220;0.407145;0.137081
2.230;0.352135;0.135773
2.240;0.295668;0.136288
2.250;0.238943;0.138483
2.260;0.182857;0.142255
2.270;0.127925;0.147617
2.280;0.074351;0.154663
2.290;0.022218;0.163425
2.300;-0.028294;0.173673
2.310;-0.076745;0.184771
2.320;-0.122416;0.195707
2.330;-0.164450;0.205316
2.340;-0.202113;0.212641
2.350;-0.235066;0.217257
2.360;-0.263548;0.219423
2.370;-0.288393;0.219990
2.380;-0.310877;0.220131
2.390;-0.332423;0.220977
2.400;-0.354243;0.223304
2.410;-0.377013;0.227355
2.420;-0.400667;0.232877
2.430;-0.424407;0.239316
2.440;-0.446898;0.246096
2.450;-0.466610;0.252828
2.460;-0.482163;0.259375
2.470;-0.492604;0.265747
2.480;-0.497534;0.271938
2.490;-0.497099;0.277801
2.500;-0.491863;0.283052
2.510;-0.482628;0.287386
2.520;-0.470270;0.290645
2.530;-0.455601;0.292944
2.540;-0.439259;0.294699
2.550;-0.421622;0.296554
2.560;-0.402730;0.299229
2.570;-0.382247;0.303364
2.580;-0.359456;0.309408
2.590;-0.333326;0.317577
2.600;-0.302674;0.327877
2.610;-0.266425;0.340146
2.620;-0.223958;0.354081
2.630;-0.175429;0.369234
2.640;-0.121947;0.384995
2.650;-0.065498;0.400617
2.660;-0.008611;0.415284
2.670;0.046161;0.428230
2.680;0.096770;0.438851
2.690;0.142048;0.446789
2.700;0.181796;0.451946
2.710;0.216604;0.454427
2.720;0.247517;0.454422
2.730;0.275750;0.452073
2.740;0.302543;0.447411
2.750;0.329158;0.440399
2.760;0.356878;0.431059
2.770;0.386934;0.419578
2.780;0.420318;0.406321
2.790;0.457568;0.391731
2.800;0.498616;0.376199
2.810;0.542765;0.359977
2.820;0.588806;0.343149
2.830;0.635234;0.325662
2.840;0.680483;0.307384
2.850;0.723127;0.288179
2.860;0.761985;0.267990
2.870;0.796156;0.246894
2.880;0.825025;0.225117
2.890;0.848295;0.202997
2.900;0.866013;0.180893
2.910;0.878546;0.159073
2.920;0.886465;0.137653
2.930;0.890370;0.116640
2.940;0.890726;0.096057
2.950;0.887796;0.076051
2.960;0.881683;0.056901
2.970;0.872468;0.038948
2.980;0.860348;0.022511
2.990;0.845728;0.007829
3.000;0.829185;-0.004960
3.010;0.811344;-0.015847
3.020;0.792676;-0.024953
3.030;0.773354;-0.032512
3.040;0.753221;-0.038793
3.050;0.731894;-0.044006
3.060;0.708944;-0.048215
3.070;0.684060;-0.051330
3.080;0.657119;-0.053186
3.090;0.628174;-0.053694
3.100;0.597383;-0.052985
3.110;0.564958;-0.051454
3.120;0.531151;-0.049680
3.130;0.496253;-0.048242
3.140;0.460558;-0.047499
3.150;0.424280;-0.047418
3.160;0.387431;-0.047496
3.170;0.349735;-0.046853
3.180;0.310643;-0.044488
3.190;0.269478;-0.039625
3.200;0.225682;-0.032013
3.210;0.179092;-0.022014
3.220;0.130148;-0.010456
3.230;0.079970;0.001651
3.240;0.030251;0.013405
3.250;-0.017006;0.024216
3.260;-0.059837;0.033878
3.270;-0.096663;0.042517
3.280;-0.126543;0.050444
3.290;-0.149278;0.057993
3.300;-0.165334;0.065408
3.310;-0.175629;0.072803
3.320;-0.181275;0.080156
3.330;-0.183374;0.087331
3.340;-0.182899;0.094132
3.350;-0.180626;0.100400
3.360;-0.177090;0.106106
3.370;-0.172515;0.111405
3.380;-0.166785;0.116594
3.390;-0.159499;0.121994
3.400;-0.150129;0.127793
3.410;-0.138246;0.133943
3.420;-0.123702;0.140170
3.430;-0.106688;0.146108
3.440;-0.087630;0.151478
3.450;-0.066962;0.156230
3.460;-0.044863;0.160565
3.470;-0.021101;0.164855
3.480;0.004958;0.169497
3.490;0.034153;0.174765
3.500;0.067275;0.180712
3.510;0.104853;0.187166
3.520;0.147059;0.193810
3.530;0.193707;0.200297
3.540;0.244315;0.206330
3.550;0.298182;0.211668
3.560;0.354484;0.216100
3.570;0.412382;0.219436
3.580;0.471116;0.221551
3.590;0.530043;0.222436
3.600;0.588621;0.222235
3.610;0.646352;0.221237
3.620;0.702742;0.219831
3.630;0.757335;0.218415
3.640;0.809810;0.217253
3.650;0.860084;0.216323
3.660;0.908352;0.215257
3.670;0.955001;0.213425
3.680;1.000453;0.210166
3.690;1.045000;0.205084
3.700;1.088718;0.198276
3.710;1.131469;0.190401
3.720;1.172972;0.182531
3.730;1.212883;0.175814
3.740;1.250857;0.171095
3.750;1.286601;0.168654
3.760;1.319913;0.168202
3.770;1.350711;0.169097
3.780;1.379031;0.170623
3.790;1.404932;0.172181
3.800;1.428332;0.173331
3.810;1.448837;0.173756
3.820;1.465656;0.173241
3.830;1.477653;0.171653
3.840;1.483541;0.168932
3.850;1.482143;0.165059
3.860;1.472670;0.160054
3.870;1.454932;0.153998
3.880;1.429434;0.147044
3.890;1.397316;0.139381
3.900;1.360161;0.131148
3.910;1.319714;0.122344
3.920;1.277614;0.112815
3.930;1.235168;0.102328
3.940;1.193216;0.090674
3.950;1.152056;0.077720
3.960;1.111447;0.063418
3.970;1.070692;0.047796
3.980;1.028805;0.030991
3.990;0.984707;0.013292
4.000;0.937426;-0.004833
4.010;0.886253;-0.022775
4.020;0.830855;-0.039862
4.030;0.771297;-0.055462
4.040;0.707993;-0.069079
4.050;0.641607;-0.080435
4.060;0.572927;-0.089511
4.070;0.502746;-0.096524
4.080;0.431753;-0.101849
4.090;0.360464;-0.105892
4.100;0.289186;-0.108959
4.110;0.218056;-0.111175
4.120;0.147141;-0.112492
4.130;0.076548;-0.112784
4.140;0.006516;-0.111996
4.150;-0.062545;-0.110253
4.160;-0.130077;-0.107885
4.170;-0.195435;-0.105347
4.180;-0.257976;-0.103072
4.190;-0.317144;-0.101330
4.200;-0.372540;-0.100148
4.210;-0.423985;-0.099344
4.220;-0.471593;-0.098599
4.230;-0.515817;-0.097527
4.240;-0.557432;-0.095722
4.250;-0.597378;-0.092813
4.260;-0.636492;-0.088550
4.270;-0.675185;-0.082896
4.280;-0.713217;-0.076063
4.290;-0.749649;-0.068471
4.300;-0.783040;-0.060631
4.310;-0.811835;-0.053021
4.320;-0.834832;-0.045995
4.330;-0.851558;-0.039738
4.340;-0.862412;-0.034298
4.350;-0.868536;-0.029647
4.360;-0.871484;-0.025764
4.370;-0.872822;-0.022630
4.380;-0.873798;-0.020142
4.390;-0.875162;-0.017972
4.400;-0.877151;-0.015509
4.410;-0.879624;-0.011931
4.420;-0.882220;-0.006399
4.430;-0.884427;0.001730
4.440;-0.885506;0.012758
4.450;-0.884350;0.026625
4.460;-0.879427;0.042983
4.470;-0.868919;0.061362
4.480;-0.851042;0.081350
4.490;-0.824373;0.102787
4.500;-0.788059;0.125898
4.510;-0.741823;0.151339
4.520;-0.685829;0.180086
4.530;-0.620510;0.213131
4.540;-0.546463;0.251084
4.550;-0.464459;0.293801
4.560;-0.375551;0.340220
4.570;-0.281184;0.388503
4.580;-0.183254;0.436440
4.590;-0.084043;0.481975
4.600;0.013965;0.523631
4.610;0.108385;0.560690
4.620;0.197259;0.593090
4.630;0.279343;0.621102
4.640;0.354295;0.644970
4.650;0.422704;0.664659
4.660;0.485943;0.679825
4.670;0.545826;0.690020
4.680;0.604136;0.694995
4.690;0.662175;0.694922
4.700;0.720493;0.690419
4.710;0.778890;0.682335
4.720;0.836662;0.671426
4.730;0.892956;0.658069
4.740;0.947047;0.642154
4.750;0.998462;0.623206
4.760;1.046943;0.600673
4.770;1.092378;0.574226
4.780;1.134767;0.543938
4.790;1.174290;0.510258
4.800;1.211369;0.473840
4.810;1.246668;0.435345
4.820;1.280964;0.395348
4.830;1.314930;0.354374
4.840;1.348913;0.313010
4.850;1.382776;0.271986
4.860;1.415846;0.232167
4.870;1.446957;0.194471
4.880;1.474591;0.159738
4.890;1.497100;0.128610
4.900;1.512985;0.101438
4.910;1.521190;0.078267
4.920;1.521362;0.058881
4.930;1.514000;0.042900
4.940;1.500401;0.029885
4.950;1.482375;0.019436
4.960;1.461760;0.011246
4.970;1.439905;0.005113
4.980;1.417282;0.000942
4.990;1.393416;-0.001266
5.000;1.367134;-0.001415
5.010;1.337041;0.000654
5.020;1.301990;0.005123
5.030;1.261394;0.012141
5.040;1.215285;0.021791
5.050;1.164177;0.034129
5.060;1.108799;0.049289
5.070;1.049850;0.067602
5.080;0.987844;0.089638
5.090;0.923099;0.116111
5.100;0.855824;0.147636
5.110;0.786238;0.184448
5.120;0.714665;0.226177
5.130;0.641594;0.271752
5.140;0.567709;0.319474
5.150;0.493874;0.367273
5.160;0.421060;0.413123
5.170;0.350234;0.455496
5.180;0.282252;0.493692
5.190;0.217780;0.527875
5.200;0.157264;0.558786
5.210;0.100929;0.587262
5.220;0.048794;0.613788
5.230;0.000690;0.638302
5.240;-0.043702;0.660316
5.250;-0.084821;0.679245
5.260;-0.123187;0.694749
5.270;-0.159365;0.706909
5.280;-0.193903;0.716164
5.290;-0.227228;0.723074
5.300;-0.259502;0.728031
5.310;-0.290533;0.731055
5.320;-0.319749;0.731772
5.330;-0.346271;0.729566
5.340;-0.369049;0.723848
5.350;-0.387035;0.714296
5.360;-0.399362;0.700982
5.370;-0.405514;0.684340
5.380;-0.405420;0.665023
5.390;-0.399452;0.643730
5.400;-0.388309;0.621085
5.410;-0.372815;0.597573
5.420;-0.353707;0.573548
5.430;-0.331455;0.549263
5.440;-0.306149;0.524924
5.450;-0.277454;0.500745
5.460;-0.244653;0.477000
5.470;-0.206779;0.454031
5.480;-0.162834;0.432203
5.490;-0.112058;0.411823
5.500;-0.054185;0.393019
5.510;0.010411;0.375654
5.520;0.080736;0.359303
5.530;0.155366;0.343321
5.540;0.232710;0.327018
5.550;0.311277;0.309873
5.560;0.389837;0.291713
5.570;0.467466;0.272753
5.580;0.543477;0.253471
5.590;0.617288;0.234375
5.600;0.688282;0.215801
5.610;0.755711;0.197845
5.620;0.818667;0.180464
5.630;0.876142;0.163645
5.640;0.927159;0.147536
5.650;0.970955;0.132474
5.660;1.007182;0.118913
5.670;1.036060;0.107294
5.680;1.058398;0.097919
5.690;1.075432;0.090861
5.700;1.088506;0.085917
5.710;1.098695;0.082624
5.720;1.106516;0.080320
5.730;1.111856;0.078254
5.740;1.114136;0.075718
5.750;1.112624;0.072171
5.760;1.106757;0.067365
5.770;1.096333;0.061431
5.780;1.081530;0.054907
5.790;1.062771;0.048647
5.800;1.040550;0.043578
5.810;1.015301;0.040399
5.820;0.987349;0.039343
5.830;0.956922;0.040130
5.840;0.924190;0.042117
5.850;0.889282;0.044567
5.860;0.852295;0.046920
5.870;0.813288;0.048987
5.880;0.772269;0.050999
5.890;0.729208;0.053516
5.900;0.684080;0.057242
5.910;0.636973;0.062811
5.920;0.588238;0.070632
5.930;0.538658;0.080812
5.940;0.489557;0.093153
5.950;0.442745;0.107221
5.960;0.400274;0.122464
5.970;0.364054;0.138357
5.980;0.335427;0.154508
5.990;0.314867;0.170703
6.000;0.301908;0.186905
6.010;0.295337;0.203222
6.020;0.293557;0.219874
6.030;0.295002;0.237156
6.040;0.298434;0.255382
6.050;0.303076;0.274796
6.060;0.308570;0.295473
6.070;0.314856;0.317244
6.080;0.322013;0.339732
6.090;0.330124;0.362465
6.100;0.339174;0.384997
6.110;0.348989;0.406979
6.120;0.359258;0.428198
6.130;0.369631;0.448612
6.140;0.379871;0.468398
6.150;0.389975;0.487938
6.160;0.400212;0.507715
6.170;0.411044;0.528120
6.180;0.422993;0.549276
6.190;0.436496;0.570951
6.200;0.451849;0.592613
6.210;0.469222;0.613598
6.220;0.488703;0.633299
6.230;0.510326;0.651331
6.240;0.534033;0.667576
6.250;0.559584;0.682143
6.260;0.586450;0.695249
6.270;0.613731;0.707099
6.280;0.640190;0.717812
6.290;0.664420;0.727411
6.300;0.685149;0.735855
6.310;0.701540;0.743080
6.320;0.713378;0.749040
6.330;0.721018;0.753751
6.340;0.725141;0.757315
6.350;0.726422;0.759925
6.360;0.725289;0.761836
6.370;0.721862;0.763301
6.380;0.716076;0.764514
6.390;0.707854;0.765570
6.400;0.697207;0.766461
6.410;0.684225;0.767075
6.420;0.669011;0.767211
6.430;0.651638;0.766628
6.440;0.632178;0.765132
6.450;0.610769;0.762666
6.460;0.587677;0.759341
6.470;0.563319;0.755383
6.480;0.538240;0.751000
6.490;0.513033;0.746242
6.500;0.488233;0.740916
6.510;0.464177;0.734616
6.520;0.440868;0.726847
6.530;0.417903;0.717229
6.540;0.394497;0.705683
6.550;0.369645;0.692552
6.560;0.342376;0.678565
6.570;0.312020;0.664648
6.580;0.278411;0.651597
6.590;0.241961;0.639766
6.600;0.203587;0.628907
6.610;0.164530;0.618282
6.620;0.126110;0.606982
6.630;0.089475;0.594300
6.640;0.055395;0.579974
6.650;0.024151;0.564216
6.660;-0.004471;0.547574
6.670;-0.031055;0.530699
6.680;-0.056347;0.514105
6.690;-0.080998;0.498010
6.700;-0.105341;0.482315
6.710;-0.129259;0.466752
6.720;-0.152180;0.451099
6.730;-0.173224;0.435367
6.740;-0.191456;0.419822
6.750;-0.206176;0.404885
6.760;-0.217125;0.390967
6.770;-0.224537;0.378347
6.780;-0.229027;0.367129
6.790;-0.231359;0.357262
6.800;-0.232229;0.348583
6.810;-0.232130;0.340868
6.820;-0.231348;0.333880
6.830;-0.230044;0.327410
6.840;-0.228321;0.321302
6.850;-0.226196;0.315444
6.860;-0.223484;0.309776
6.870;-0.219700;0.304305
6.880;-0.214083;0.299147
6.890;-0.205784;0.294574
6.900;-0.194140;0.291000
6.910;-0.178892;0.288909
6.920;-0.160237;0.288717
6.930;-0.138682;0.290659
6.940;-0.114773;0.294745
6.950;-0.088823;0.300805
6.960;-0.060774;0.308584
6.970;-0.030262;0.317830
6.980;0.003157;0.328355
6.990;0.039738;0.340048
7.000;0.079351;0.352860
7.010;0.121403;0.366770
7.020;0.164880;0.381758
7.030;0.208468;0.397792
7.040;0.250718;0.414873
7.050;0.290234;0.433083
7.060;0.325843;0.452630
7.070;0.356759;0.473807
7.080;0.382698;0.496855
7.090;0.403925;0.521776
7.100;0.421193;0.548171
7.110;0.435589;0.575205
7.120;0.448307;0.601735
7.130;0.460426;0.626577
7.140;0.472739;0.648795
7.150;0.485693;0.667893
7.160;0.499394;0.683836
7.170;0.513678;0.696925
7.180;0.528165;0.707611
7.190;0.542299;0.716332
7.200;0.555367;0.723401
7.210;0.566509;0.728984
7.220;0.574760;0.733127
7.230;0.579150;0.735821
7.240;0.578858;0.737021
7.250;0.573407;0.736635
7.260;0.562821;0.734489
7.270;0.547693;0.730342
7.280;0.529094;0.723938
7.290;0.508360;0.715082
7.300;0.486796;0.703714
7.310;0.465413;0.689922
7.320;0.444804;0.673898
7.330;0.425173;0.655879
7.340;0.406466;0.636131
7.350;0.388511;0.614958
7.360;0.371111;0.592742
7.370;0.354093;0.569939
7.380;0.337344;0.547053
7.390;0.320832;0.524559
7.400;0.304592;0.502824
7.410;0.288653;0.482070
7.420;0.272928;0.462395
7.430;0.257105;0.443837
7.440;0.240622;0.426416
7.450;0.222744;0.410140
7.460;0.202746;0.394989
7.470;0.180121;0.380929
7.480;0.154746;0.367987
7.490;0.126933;0.356323
7.500;0.097364;0.346236
7.510;0.066910;0.338080
7.520;0.036401;0.332120
7.530;0.006368;0.328416
7.540;-0.023164;0.326771
7.550;-0.052765;0.326743
7.560;-0.083520;0.327734
7.570;-0.116787;0.329105
7.580;-0.153835;0.330327
7.590;-0.195489;0.331117
7.600;-0.241858;0.331505
7.610;-0.292245;0.331798
7.620;-0.345247;0.332421
7.630;-0.399024;0.333716
7.640;-0.451676;0.335776
7.650;-0.501610;0.338387
7.660;-0.547789;0.341090
7.670;-0.589796;0.343321
7.680;-0.627700;0.344576
7.690;-0.661810;0.344557
7.700;-0.692392;0.343264
7.710;-0.719457;0.341011
7.720;-0.742677;0.338343
7.730;-0.761443;0.335875
7.740;-0.775045;0.334093
7.750;-0.782932;0.333173
7.760;-0.784950;0.332922
7.770;-0.781468;0.332871
7.780;-0.773308;0.332484
7.790;-0.761497;0.331391
7.800;-0.746981;0.329548
7.810;-0.730406;0.327250
7.820;-0.712059;0.325007
7.830;-0.691961;0.323347
7.840;-0.670051;0.322627
7.850;-0.646348;0.322939
7.860;-0.621032;0.324125
7.870;-0.594402;0.325891
7.880;-0.566775;0.327965
7.890;-0.538419;0.330249
7.900;-0.509576;0.332913
7.910;-0.480537;0.336376
7.920;-0.451693;0.341184
7.930;-0.423487;0.347809
7.940;-0.396268;0.356463
7.950;-0.370113;0.367000
7.960;-0.344707;0.378953
7.970;-0.319332;0.391680
7.980;-0.292978;0.404540
7.990;-0.264529;0.417025
8.000;-0.232981;0.428802
8.010;-0.197643;0.439683
8.020;-0.158296;0.449580
8.030;-0.115277;0.458481
8.040;-0.069439;0.466436
8.050;-0.022006;0.473525
8.060;0.025665;0.479764
8.070;0.072352;0.484989
8.080;0.117177;0.488774
8.090;0.159731;0.490479
8.100;0.200070;0.489426
8.110;0.238621;0.485164
8.120;0.276021;0.477686
8.130;0.312940;0.467501
8.140;0.349956;0.455494
8.150;0.387511;0.442620
