Time[s];COPx[cm];COPy[cm]
0.010;3.287109;1.663167
0.020;3.283516;1.686959
0.030;3.277569;1.709262
0.040;3.267330;1.728843
0.050;3.251459;1.745021
0.060;3.229326;1.757652
0.070;3.200976;1.766941
0.080;3.166994;1.773199
0.090;3.128333;1.776674
0.100;3.086138;1.777491
0.110;3.041598;1.775658
0.120;2.995856;1.771098
0.130;2.949992;1.763683
0.140;2.905064;1.753256
0.150;2.862148;1.739630
0.160;2.822281;1.722559
0.170;2.786279;1.701724
0.180;2.754527;1.676776
0.190;2.726849;1.647462
0.200;2.702577;1.613770
0.210;2.680805;1.576058
0.220;2.660752;1.535115
0.230;2.642061;1.492162
0.240;2.624905;1.448743
0.250;2.609848;1.406488
0.260;2.597525;1.366784
0.270;2.588316;1.330486
0.280;2.582176;1.297791
0.290;2.578645;1.268330
0.300;2.576998;1.241430
0.310;2.576432;1.216440
0.320;2.576194;1.192968
0.330;2.575634;1.170953
0.340;2.574176;1.150525
0.350;2.571258;1.131755
0.360;2.566303;1.114444
0.370;2.558744;1.098089
0.380;2.548090;1.082042
0.390;2.534002;1.065807
0.400;2.516327;1.049326
0.410;2.495123;1.033103
0.420;2.470674;1.018077
0.430;2.443528;1.005261
0.440;2.414540;0.995298
0.450;2.384853;0.988137
0.460;2.355794;0.982973
0.470;2.328670;0.978471
0.480;2.304527;0.973173
0.490;2.283966;0.965953
0.500;2.267058;0.956375
0.510;2.253423;0.944837
0.520;2.242413;0.932448
0.530;2.233346;0.920677
0.540;2.225698;0.910914
0.550;2.219186;0.904141
0.560;2.213734;0.900790
0.570;2.209342;0.900791
0.580;2.205955;0.903678
0.590;2.203359;0.908710
0.600;2.201167;0.914970
0.610;2.198845;0.921466
0.620;2.195776;0.927245
0.630;2.191337;0.931516
0.640;2.184960;0.933775
0.650;2.176170;0.933864
0.660;2.164601;0.931946
0.670;2.149995;0.928414
0.680;2.132198;0.923744
0.690;2.111172;0.918375
0.700;2.087016;0.912631
0.710;2.060015;0.906696
0.720;2.030663;0.900610
0.730;1.999644;0.894305
0.740;1.967728;0.887650
0.750;1.935624;0.880547
0.760;1.903843;0.873009
0.770;1.872660;0.865173
0.780;1.842182;0.857219
0.790;1.812483;0.849224
0.800;1.783716;0.841063
0.810;1.756176;0.832413
0.820;1.730270;0.822862
0.830;1.706440;0.812031
0.840;1.685034;0.799626
0.850;1.666158;0.785425
0.860;1.649558;0.769262
0.870;1.634570;0.751089
0.880;1.620185;0.731110
0.890;1.605219;0.709894
0.900;1.588523;0.688396
0.910;1.569159;0.667839
0.920;1.546512;0.649480
0.930;1.520329;0.634367
0.940;1.490682;0.623130
0.950;1.457906;0.615874
0.960;1.422483;0.612195
0.970;1.384919;0.611320
0.980;1.345636;0.612331
0.990;1.304912;0.614404
1.000;1.262904;0.616988
1.010;1.219719;0.619887
1.020;1.175503;0.623245
1.030;1.130473;0.627430
1.040;1.084895;0.632848
1.050;1.039044;0.639760
1.060;0.993164;0.648185
1.070;0.947488;0.657903
1.080;0.902285;0.668523
1.090;0.857897;0.679528
1.100;0.814738;0.690281
1.110;0.773251;0.700042
1.120;0.733843;0.708073
1.130;0.696823;0.713805
1.140;0.662357;0.717030
1.150;0.630456;0.717982
1.160;0.601031;0.717272
1.170;0.573970;0.715637
1.180;0.549216;0.713650
1.190;0.526773;0.711510
1.200;0.506665;0.709040
1.210;0.488869;0.705882
1.220;0.473304;0.701793
1.230;0.459864;0.696881
1.240;0.448479;0.691664
1.250;0.439141;0.686926
1.260;0.431852;0.683452
1.270;0.426545;0.681777
1.280;0.423001;0.682070
1.290;0.420834;0.684188
1.300;0.419515;0.687847
1.310;0.418433;0.692809
1.320;0.417001;0.698998
1.330;0.414788;0.706474
1.340;0.411662;0.715314
1.350;0.407839;0.725469
1.360;0.403790;0.736694
1.370;0.400045;0.748600
1.380;0.396965;0.760816
1.390;0.394600;0.773210
1.400;0.392681;0.786066
1.410;0.390732;0.800154
1.420;0.388247;0.816640
1.430;0.384869;0.836807
1.440;0.380508;0.861660
1.450;0.375417;0.891545
1.460;0.370181;0.925934
1.470;0.365639;0.963447
1.480;0.362703;1.002098
1.490;0.362151;1.039693
1.500;0.364427;1.074280
1.510;0.369497;1.104530
1.520;0.376831;1.129935
1.530;0.385515;1.150772
1.540;0.394509;1.167851
1.550;0.402957;1.182127
1.560;0.410438;1.194336
1.570;0.417045;1.204741
1.580;0.423263;1.213100
1.590;0.429704;1.218832
1.600;0.436794;1.221296
1.610;0.444541;1.220078
1.620;0.452464;1.215202
1.630;0.459691;1.207233
1.640;0.465199;1.197271
1.650;0.468057;1.186836
1.660;0.467609;1.177659
1.670;0.463560;1.171416
1.680;0.455953;1.169432
1.690;0.445092;1.172421
1.700;0.431440;1.180359
1.710;0.415529;1.192538
1.720;0.397914;1.207829
1.730;0.379165;1.225038
1.740;0.359930;1.243203
1.750;0.341025;1.261750
1.760;0.323510;1.280446
1.770;0.308639;1.299204
1.780;0.297679;1.317816
1.790;0.291632;1.335744
1.800;0.290988;1.352057
1.810;0.295642;1.365575
1.820;0.304997;1.375188
1.830;0.318223;1.380247
1.840;0.334561;1.380866
1.850;0.353551;1.377995
1.860;0.375103;1.373262
1.870;0.399390;1.368621
1.880;0.426620;1.365918
1.890;0.456806;1.366466
1.900;0.489612;1.370718
1.910;0.524318;1.378134
1.920;0.559904;1.387307
1.930;0.595218;1.396317
1.940;0.629199;1.403223
1.950;0.661075;1.406524
1.960;0.690489;1.405445
1.970;0.717495;1.399983
1.980;0.742430;1.390752
1.990;0.765696;1.378723
2.000;0.787554;1.364962
2.010;0.808011;1.350428
2.020;0.826809;1.335868
2.030;0.843481;1.321803
2.040;0.857459;1.308595
2.050;0.868183;1.296524
2.060;0.875190;1.285839
2.070;0.878182;1.276775
2.080;0.877042;1.269519
2.090;0.871841;1.264151
2.100;0.862831;1.260552
2.110;0.850446;1.258339
2.120;0.835281;1.256846
2.130;0.818030;1.255183
2.140;0.799391;1.252342
2.150;0.779966;1.247319
2.160;0.760226;1.239227
2.170;0.740572;1.227415
2.180;0.721456;1.211551
2.190;0.703477;1.191678
2.200;0.687376;1.168176
2.210;0.673907;1.141655
2.220;0.663654;1.112785
2.230;0.656866;1.082151
2.240;0.653380;1.050210
2.250;0.652625;1.017382
2.260;0.653724;0.984193
2.270;0.655667;0.951386
2.280;0.657521;0.919896
2.290;0.658602;0.890659
2.300;0.658568;0.864322
2.310;0.657417;0.840945
2.320;0.655400;0.819873
2.330;0.652876;0.799881
2.340;0.650139;0.779586
2.350;0.647269;0.757951
2.360;0.644076;0.734634
2.370;0.640151;0.710028
2.380;0.635020;0.684996
2.390;0.628330;0.660433
2.400;0.620018;0.636872
2.410;0.610402;0.614307
2.420;0.600158;0.592292
2.430;0.590194;0.570214
2.440;0.581454;0.547590
2.450;0.574726;0.524225
2.460;0.570521;0.500218
2.470;0.569059;0.475826
2.480;0.570371;0.451298
2.490;0.574478;0.426718
2.500;0.581551;0.401946
2.510;0.591955;0.376666
2.520;0.606162;0.350576
2.530;0.624539;0.323640
2.540;0.647125;0.296297
2.550;0.673492;0.269508
2.560;0.702745;0.244578
2.570;0.733682;0.222806
2.580;0.765044;0.205108
2.590;0.795760;0.191767
2.600;0.825104;0.182407
2.610;0.852726;0.176153
2.620;0.878567;0.171928
2.630;0.902721;0.168756
2.640;0.925278;0.166012
2.650;0.946203;0.163560
2.660;0.965263;0.161775
2.670;0.982002;0.161433
2.680;0.995774;0.163470
2.690;1.005877;0.168648
2.700;1.011786;0.177249
2.710;1.013440;0.188920
2.720;1.011446;0.202787
2.730;1.007059;0.217794
2.740;1.001894;0.233137
2.750;0.997460;0.248550
2.760;0.994719;0.264274
2.770;0.993863;0.280737
2.780;0.994382;0.298157
2.790;0.995378;0.316298
2.800;0.995981;0.334514
2.810;0.995673;0.352018
2.820;0.994412;0.368238
2.830;0.992535;0.383070
2.840;0.990532;0.396951
2.850;0.988802;0.410710
2.860;0.987473;0.425264
2.870;0.986338;0.441237
2.880;0.984910;0.458661
2.890;0.982557;0.476837
2.900;0.978673;0.494438
2.910;0.972828;0.509816
2.920;0.964860;0.521438
2.930;0.954913;0.528276
2.940;0.943386;0.530050
2.950;0.930824;0.527224
2.960;0.917773;0.520810
2.970;0.904642;0.512078
2.980;0.891630;0.502288
2.990;0.878720;0.492477
3.000;0.865739;0.483340
3.010;0.852472;0.475182
3.020;0.838783;0.467982
3.030;0.824691;0.461535
3.040;0.810359;0.455613
3.050;0.795995;0.450074
3.060;0.781708;0.444901
3.070;0.767411;0.440154
3.080;0.752850;0.435867
3.090;0.737784;0.431930
3.100;0.722217;0.428012
3.110;0.706527;0.423606
3.120;0.691398;0.418209
3.130;0.677575;0.411560
3.140;0.665587;0.403816
3.150;0.655581;0.395543
3.160;0.647377;0.387516
3.170;0.640697;0.380432
3.180;0.635424;0.374684
3.190;0.631738;0.370328
3.200;0.630046;0.367216
3.210;0.630767;0.365203
3.220;0.634075;0.364293
3.230;0.639750;0.364661
3.240;0.647194;0.366582
3.250;0.655604;0.370306
3.260;0.664217;0.375946
3.270;0.672495;0.383397
3.280;0.680162;0.392357
3.290;0.687124;0.402449
3.300;0.693342;0.413376
3.310;0.698762;0.425025
3.320;0.703298;0.437462
3.330;0.706839;0.450860
3.340;0.709254;0.465453
3.350;0.710403;0.481544
3.360;0.710164;0.499538
3.370;0.708479;0.519907
3.380;0.705375;0.543071
3.390;0.700932;0.569283
3.400;0.695196;0.598579
3.410;0.688071;0.630861
3.420;0.679225;0.666045
3.430;0.668040;0.704209
3.440;0.653653;0.745643
3.450;0.635082;0.790749
3.460;0.611436;0.839788
3.470;0.582191;0.892532
3.480;0.547464;0.947947
3.490;0.508176;1.004065
3.500;0.465991;1.058177
3.510;0.423003;1.107352
3.520;0.381234;1.149103
3.530;0.342126;1.181930
3.540;0.306228;1.205545
3.550;0.273218;1.220698
3.560;0.242233;1.228746
3.570;0.212347;1.231191
3.580;0.182999;1.229359
3.590;0.154238;1.224293
3.600;0.126731;1.216822
3.610;0.101538;1.207689
3.620;0.079763;1.197635
3.630;0.062194;1.187396
3.640;0.049086;1.177619
3.650;0.040144;1.168758
3.660;0.034682;1.161012
3.670;0.031833;1.154325
3.680;0.030722;1.148447
3.690;0.030534;1.143018
3.700;0.030520;1.137659
3.710;0.029969;1.132056
3.720;0.028233;1.126036
3.730;0.024785;1.119618
3.740;0.019301;1.113017
3.750;0.011694;1.106600
3.760;0.002084;1.100799
3.770;-0.009308;1.095997
3.780;-0.022263;1.092446
3.790;-0.036636;1.090219
3.800;-0.052366;1.089178
3.810;-0.069429;1.088939
3.820;-0.087774;1.088845
3.830;-0.107252;1.088007
3.840;-0.127586;1.085456
3.850;-0.148359;1.080368
3.860;-0.169042;1.072320
3.870;-0.189033;1.061480
3.880;-0.207707;1.048641
3.890;-0.224486;1.035065
3.900;-0.238913;1.022159
3.910;-0.250725;1.011121
3.920;-0.259869;1.002697
3.930;-0.266459;0.997165
3.940;-0.270694;0.994502
3.950;-0.272789;0.994587
3.960;-0.272960;0.997291
3.970;-0.271462;1.002446
3.980;-0.268655;1.009766
3.990;-0.265026;1.018822
4.000;-0.261148;1.029095
4.010;-0.257556;1.040072
4.020;-0.254614;1.051331
4.030;-0.252431;1.062578
4.040;-0.250877;1.073651
4.050;-0.249698;1.084495
4.060;-0.248654;1.095126
4.070;-0.247626;1.105591
4.080;-0.246627;1.115916
4.090;-0.245716;1.126047
4.100;-0.244848;1.135769
4.110;-0.243719;1.144648
4.120;-0.241669;1.152024
4.130;-0.237719;1.157084
4.140;-0.230748;1.159008
4.150;-0.219768;1.157170
4.160;-0.204195;1.151314
4.170;-0.184006;1.141650
4.180;-0.159728;1.128828
4.190;-0.132268;1.113797
4.200;-0.102655;1.097638
4.210;-0.071793;1.081420
4.220;-0.040318;1.066099
4.230;-0.008600;1.052443
4.240;0.023153;1.040946
4.250;0.054761;1.031746
4.260;0.085996;1.024567
4.270;0.116600;1.018717
4.280;0.146341;1.013166
4.290;0.175074;1.006720
4.300;0.202751;0.998299
4.310;0.229358;0.987240
4.320;0.254833;0.973557
4.330;0.278964;0.958015
4.340;0.301345;0.941991
4.350;0.321408;0.927156
4.360;0.338567;0.915098
4.370;0.352418;0.907027
4.380;0.362915;0.903596
4.390;0.370431;0.904847
4.400;0.375668;0.910230
4.410;0.379446;0.918720
4.420;0.382457;0.929008
4.430;0.385100;0.939741
4.440;0.387451;0.949743
4.450;0.389389;0.958174
4.460;0.390818;0.964622
4.470;0.391870;0.969112
4.480;0.392986;0.972021
4.490;0.394825;0.973882
4.500;0.398036;0.975129
4.510;0.403039;0.975892
4.520;0.409901;0.975945
4.530;0.418387;0.974832
4.540;0.428109;0.972131
4.550;0.438706;0.967713
4.560;0.449937;0.961871
4.570;0.461680;0.955268
4.580;0.473860;0.948744
4.590;0.486395;0.943087
4.600;0.499202;0.938861
4.610;0.512227;0.936307
4.620;0.525471;0.935311
4.630;0.538960;0.935444
4.640;0.552693;0.936103
4.650;0.566604;0.936727
4.660;0.580562;0.937019
4.670;0.594408;0.937073
4.680;0.608003;0.937346
4.690;0.621270;0.938459
4.700;0.634225;0.940932
4.710;0.646977;0.944988
4.720;0.659720;0.950539
4.730;0.672720;0.957353
4.740;0.686326;0.965283
4.750;0.700974;0.974409
4.760;0.717174;0.984984
4.770;0.735440;0.997215
4.780;0.756187;1.010989
4.790;0.779618;1.025677
4.800;0.805639;1.040128
4.810;0.833840;1.052878
4.820;0.863522;1.062535
4.830;0.893793;1.068169
4.840;0.923713;1.069574
4.850;0.952444;1.067296
4.860;0.979388;1.062477
4.870;1.004251;1.056570
4.880;1.027055;1.051018
4.890;1.048065;1.046944
4.900;1.067664;1.044948
4.910;1.086200;1.045079
4.920;1.103852;1.047005
4.930;1.120550;1.050315
4.940;1.135991;1.054789
4.950;1.149731;1.060481
4.960;1.161356;1.067556
4.970;1.170650;1.075981
4.980;1.177710;1.085296
4.990;1.182948;1.094620
5.000;1.186977;1.102922
5.010;1.190450;1.109381
5.020;1.193918;1.113654
5.030;1.197748;1.115907
5.040;1.202109;1.116616
5.050;1.206987;1.116235
5.060;1.212216;1.114913
5.070;1.217494;1.112387
5.080;1.222390;1.108124
5.090;1.226380;1.101571
5.100;1.228918;1.092399
5.110;1.229551;1.080610
5.120;1.228021;1.066533
5.130;1.224295;1.050765
5.140;1.218492;1.034076
5.150;1.210744;1.017293
5.160;1.201061;1.001128
5.170;1.189300;0.986020
5.180;1.175243;0.972034
5.190;1.158755;0.958902
5.200;1.139950;0.946197
5.210;1.119287;0.933559
5.220;1.097549;0.920843
5.230;1.075724;0.908125
5.240;1.054791;0.895567
5.250;1.035524;0.883246
5.260;1.018351;0.871061
5.270;1.003337;0.858755
5.280;0.990255;0.846052
5.290;0.978701;0.832807
5.300;0.968185;0.819115
5.310;0.958178;0.805304
5.320;0.948144;0.791824
5.330;0.937587;0.779024
5.340;0.926099;0.766915
5.350;0.913375;0.754991
5.360;0.899167;0.742236
5.370;0.883192;0.727356
5.380;0.865070;0.709180
5.390;0.844337;0.687089
5.400;0.820525;0.661301
5.410;0.793260;0.632857
5.420;0.762325;0.603347
5.430;0.727691;0.574502
5.440;0.689541;0.547849
5.450;0.648299;0.524508
5.460;0.604676;0.505107
5.470;0.559691;0.489763
5.480;0.514650;0.478096
5.490;0.471049;0.469337
5.500;0.430401;0.462519
5.510;0.394057;0.456737
5.520;0.363052;0.451357
5.530;0.338040;0.446115
5.540;0.319302;0.441084
5.550;0.306815;0.436534
5.560;0.300320;0.432749
5.570;0.299379;0.429862
5.580;0.303407;0.427761
5.590;0.311700;0.426087
5.600;0.323489;0.424363
5.610;0.338015;0.422209
5.620;0.354598;0.419582
5.630;0.372655;0.416905
5.640;0.391687;0.415031
5.650;0.411220;0.415022
5.660;0.430740;0.417810
5.670;0.449640;0.423866
5.680;0.467207;0.433000
5.690;0.482664;0.444380
5.700;0.495293;0.456733
5.710;0.504603;0.468666
5.720;0.510495;0.478983
5.730;0.513359;0.486945
5.740;0.514043;0.492396
5.750;0.513691;0.495760
5.760;0.513491;0.497875
5.770;0.514419;0.499724
5.780;0.517107;0.502154
5.790;0.521862;0.505684
5.800;0.528818;0.510422
5.810;0.538104;0.516096
5.820;0.549943;0.522154
5.830;0.564650;0.527916
5.840;0.582563;0.532760
5.850;0.603954;0.536296
5.860;0.628942;0.538524
5.870;0.657401;0.539899
5.880;0.688891;0.541280
5.890;0.722610;0.543744
5.900;0.757437;0.548300
5.910;0.792055;0.555607
5.920;0.825160;0.565782
5.930;0.855677;0.578384
5.940;0.882934;0.592531
5.950;0.906750;0.607101
5.960;0.927410;0.620942
5.970;0.945556;0.633034
5.980;0.961971;0.642618
5.990;0.977316;0.649323
6.000;0.991889;0.653289
6.010;1.005530;0.655203
6.020;1.017745;0.656195
6.030;1.027998;0.657571
6.040;1.036045;0.660490
6.050;1.042127;0.665691
6.060;1.046968;0.673362
6.070;1.051576;0.683161
6.080;1.056961;0.694371
6.090;1.063882;0.706139
6.100;1.072723;0.717708
6.110;1.083500;0.728569
6.120;1.095969;0.738511
6.130;1.109735;0.747613
6.140;1.124338;0.756213
6.150;1.139281;0.764873
6.160;1.154038;0.774282
6.170;1.168046;0.785059
6.180;1.180743;0.797495
6.190;1.191625;0.811374
6.200;1.200292;0.825995
6.210;1.206462;0.840375
6.220;1.209919;0.853522
6.230;1.210446;0.864680
6.240;1.207775;0.873452
6.250;1.201600;0.879789
6.260;1.191669;0.883869
6.270;1.177923;0.885948
6.280;1.160625;0.886248
6.290;1.140399;0.884943
6.300;1.118145;0.882206
6.310;1.094846;0.878289
6.320;1.071345;0.873596
6.330;1.048165;0.868690
6.340;1.025458;0.864212
6.350;1.003098;0.860712
6.360;0.980882;0.858454
6.370;0.958768;0.857268
6.380;0.937058;0.856542
6.390;0.916433;0.855393
6.400;0.897828;0.852981
6.410;0.882203;0.848820
6.420;0.870278;0.842960
6.430;0.862349;0.835932
6.440;0.858205;0.828511
6.450;0.857164;0.821425
6.460;0.858201;0.815133
6.470;0.860157;0.809752
6.480;0.861963;0.805089
6.490;0.862842;0.800745
6.500;0.862420;0.796234
6.510;0.860702;0.791078
6.520;0.857956;0.784870
6.530;0.854536;0.777287
6.540;0.850728;0.768053
6.550;0.846640;0.756919
6.560;0.842167;0.743639
6.570;0.837014;0.727984
6.580;0.830789;0.709800
6.590;0.823138;0.689117
6.600;0.813879;0.666291
6.610;0.803092;0.642086
6.620;0.791099;0.617615
6.630;0.778369;0.594097
6.640;0.765388;0.572530
6.650;0.752544;0.553413
6.660;0.740062;0.536653
6.670;0.728010;0.521657
6.680;0.716343;0.507565
6.690;0.704989;0.493503
6.700;0.693921;0.478828
6.710;0.683193;0.463290
6.720;0.672932;0.447074
6.730;0.663304;0.430696
6.740;0.654454;0.414791
6.750;0.646447;0.399910
6.760;0.639230;0.386390
6.770;0.632626;0.374329
6.780;0.626382;0.363612
6.790;0.620222;0.353943
6.800;0.613874;0.344865
6.810;0.607072;0.335796
6.820;0.599568;0.326123
6.830;0.591186;0.315343
6.840;0.581910;0.303222
6.850;0.571968;0.289876
6.860;0.561817;0.275746
6.870;0.552051;0.261479
6.880;0.543228;0.247794
6.890;0.535715;0.235367
6.900;0.529598;0.224728
6.910;0.524689;0.216137
6.920;0.520647;0.209493
6.930;0.517146;0.204347
6.940;0.514029;0.200063
6.950;0.511388;0.196069
6.960;0.509545;0.192079
6.970;0.508916;0.188189
6.980;0.509819;0.184845
6.990;0.512285;0.182691
7.000;0.515980;0.182342
7.010;0.520290;0.184130
7.020;0.524538;0.187891
7.030;0.528234;0.192907
7.040;0.531244;0.198073
7.050;0.533813;0.202291
7.060;0.536458;0.204910
7.070;0.539769;0.206012
7.080;0.544198;0.206362
7.090;0.549878;0.207061
7.100;0.556558;0.209071
7.110;0.563676;0.212911
7.120;0.570570;0.218650
7.130;0.576738;0.226157
7.140;0.582027;0.235406
7.150;0.586653;0.246631
7.160;0.591036;0.260278
7.170;0.595566;0.276793
7.180;0.600389;0.296408
7.190;0.605334;0.319008
7.200;0.609954;0.344140
7.210;0.613660;0.371142
7.220;0.615863;0.399333
7.230;0.616129;0.428139
7.240;0.614301;0.457118
7.250;0.610590;0.485877
7.260;0.605583;0.513959
7.270;0.600160;0.540775
7.280;0.595336;0.565639
7.290;0.592100;0.587873
7.300;0.591321;0.606961
7.310;0.593764;0.622692
7.320;0.600155;0.635208
7.330;0.611217;0.644973
7.340;0.627615;0.652645
7.350;0.649829;0.658925
7.360;0.678017;0.664407
7.370;0.711944;0.669456
7.380;0.751014;0.674152
7.390;0.794415;0.678312
7.400;0.841331;0.681590
7.410;0.891135;0.683618
7.420;0.943465;0.684164
7.430;0.998170;0.683285
7.440;1.055145;0.681461
7.450;1.114145;0.679639
7.460;1.174642;0.679098
7.470;1.235754;0.681156
7.480;1.296256;0.686836
7.490;1.354651;0.696673
7.500;1.409342;0.710716
7.510;1.458872;0.728656
7.520;1.502182;0.749940
7.530;1.538793;0.773788
7.540;1.568842;0.799162
7.550;1.592973;0.824777
7.560;1.612121;0.849237
7.570;1.627256;0.871254
7.580;1.639195;0.889836
7.590;1.648536;0.904387
7.600;1.655756;0.914688
7.610;1.661381;0.920822
7.620;1.666112;0.923072
7.630;1.670810;0.921829
7.640;1.676361;0.917497
7.650;1.683536;0.910439
7.660;1.692943;0.900942
7.670;1.705095;0.889213
7.680;1.720522;0.875405
7.690;1.739810;0.859632
7.700;1.763520;0.841983
7.710;1.792035;0.822506
7.720;1.825433;0.801212
7.730;1.863465;0.778121
7.740;1.905642;0.753349
7.750;1.951364;0.727226
7.760;2.000052;0.700399
7.770;2.051212;0.673848
7.780;2.104432;0.648767
7.790;2.159286;0.626296
7.800;2.215186;0.607158
7.810;2.271292;0.591371
7.820;2.326548;0.578180
7.830;2.379867;0.566258
7.840;2.430386;0.554134
7.850;2.477630;0.540655
7.860;2.521522;0.525320
7.870;2.562247;0.508377
7.880;2.600067;0.490643
7.890;2.635172;0.473135
7.900;2.667597;0.456675
7.910;2.697207;0.441639
7.920;2.723717;0.427930
7.930;2.746737;0.415168
7.940;2.765841;0.402979
7.950;2.780648;0.391263
7.960;2.790923;0.380313
7.970;2.796643;0.370695
7.980;2.798012;0.362967
7.990;2.795394;0.357341
8.000;2.789202;0.353479
8.010;2.779774;0.350492
8.020;2.767310;0.347147
8.030;2.751889;0.342208
8.040;2.733563;0.334797
8.050;2.712454;0.324658
8.060;2.688796;0.312210
8.070;2.662904;0.298358
8.080;2.635081;0.284149
8.090;2.605519;0.270454
8.100;2.574258;0.257782
8.110;2.541237;0.246246
8.120;2.506408;0.235631
8.130;2.469833;0.225504
8.140;2.431730;0.215351
8.150;2.392417;0.204713
8.160;2.352243;0.193302
8.170;2.311520;0.181049
8.180;2.270522;0.168067
8.190;2.229516;0.154554
8.200;2.188810;0.140653
8.210;2.148783;0.126336
8.220;2.109863;0.111366
8.230;2.072472;0.095365
8.240;2.036972;0.077957
8.250;2.003643;0.058919
8.260;1.972742;0.038282
8.270;1.944573;0.016357
8.280;1.919523;-0.006298
8.290;1.898006;-0.028960
8.300;1.880340;-0.050901
