Time[s];COPx[cm];COPy[cm]
0.010;-5.107162;0.516876
0.020;-5.128639;0.518009
0.030;-5.147865;0.519395
0.040;-5.163216;0.521253
0.050;-5.173987;0.523706
0.060;-5.180497;0.526761
0.070;-5.183898;0.530341
0.080;-5.185738;0.534350
0.090;-5.187415;0.538742
0.100;-5.189719;0.543530
0.110;-5.192636;0.548739
0.120;-5.195489;0.554327
0.130;-5.197341;0.560148
0.140;-5.197456;0.565994
0.150;-5.195602;0.571674
0.160;-5.192069;0.577077
0.170;-5.187454;0.582170
0.180;-5.182356;0.586959
0.190;-5.177137;0.591452
0.200;-5.171813;0.595665
0.210;-5.166064;0.599646
0.220;-5.159299;0.603444
0.230;-5.150736;0.606982
0.240;-5.139510;0.609944
0.250;-5.124832;0.611803
0.260;-5.106200;0.612036
0.270;-5.083615;0.610411
0.280;-5.057683;0.607152
0.290;-5.029560;0.602870
0.300;-5.000725;0.598281
0.310;-4.972647;0.593851
0.320;-4.946463;0.589573
0.330;-4.922754;0.585002
0.340;-4.901513;0.579512
0.350;-4.882292;0.572639
0.360;-4.864470;0.564331
0.370;-4.847525;0.555007
0.380;-4.831213;0.545422
0.390;-4.815628;0.536412
0.400;-4.801137;0.528678
0.410;-4.788249;0.522665
0.420;-4.777432;0.518549
0.430;-4.768941;0.516264
0.440;-4.762670;0.515501
0.450;-4.758107;0.515733
0.460;-4.754419;0.516302
0.470;-4.750673;0.516621
0.480;-4.746141;0.516401
0.490;-4.740551;0.515798
0.500;-4.734208;0.515373
0.510;-4.727927;0.515851
0.520;-4.722809;0.517810
0.530;-4.719902;0.521434
0.540;-4.719873;0.526463
0.550;-4.722802;0.532303
0.560;-4.728196;0.538184
0.570;-4.735221;0.543329
0.580;-4.743046;0.547123
0.590;-4.751141;0.549299
0.600;-4.759415;0.550030
0.610;-4.768123;0.549851
0.620;-4.777623;0.549404
0.630;-4.788093;0.549139
0.640;-4.799404;0.549138
0.650;-4.811203;0.549128
0.660;-4.823126;0.548678
0.670;-4.835021;0.547443
0.680;-4.847062;0.545355
0.690;-4.859679;0.542675
0.700;-4.873345;0.539878
0.710;-4.888280;0.537446
0.720;-4.904223;0.535685
0.730;-4.920381;0.534657
0.740;-4.935621;0.534240
0.750;-4.948863;0.534257
0.760;-4.959492;0.534613
0.770;-4.967615;0.535351
0.780;-4.974008;0.536623
0.790;-4.979806;0.538560
0.800;-4.986067;0.541099
0.810;-4.993404;0.543865
0.820;-5.001798;0.546200
0.830;-5.010638;0.547362
0.840;-5.018947;0.546795
0.850;-5.025738;0.544343
0.860;-5.030363;0.540308
0.870;-5.032707;0.535360
0.880;-5.033165;0.530337
0.890;-5.032393;0.526020
0.900;-5.031010;0.522977
0.910;-5.029383;0.521500
0.920;-5.027573;0.521604
0.930;-5.025440;0.523062
0.940;-5.022776;0.525444
0.950;-5.019392;0.528184
0.960;-5.015133;0.530693
0.970;-5.009862;0.532479
0.980;-5.003484;0.533219
0.990;-4.995993;0.532788
1.000;-4.987492;0.531267
1.010;-4.978178;0.528938
1.020;-4.968299;0.526273
1.030;-4.958126;0.523857
1.040;-4.947934;0.522256
1.050;-4.937977;0.521862
1.060;-4.928446;0.522775
1.070;-4.919429;0.524760
1.080;-4.910876;0.527296
1.090;-4.902587;0.529718
1.100;-4.894204;0.531423
1.110;-4.885254;0.532049
1.120;-4.875245;0.531565
1.130;-4.863821;0.530218
1.140;-4.850934;0.528416
1.150;-4.836937;0.526575
1.160;-4.822542;0.525004
1.170;-4.808642;0.523825
1.180;-4.796075;0.522965
1.190;-4.785402;0.522212
1.200;-4.776797;0.521332
1.210;-4.770066;0.520199
1.220;-4.764776;0.518868
1.230;-4.760414;0.517546
1.240;-4.756519;0.516454
1.250;-4.752727;0.515668
1.260;-4.748773;0.515027
1.270;-4.744459;0.514158
1.280;-4.739662;0.512588
1.290;-4.734376;0.509915
1.300;-4.728770;0.505964
1.310;-4.723194;0.500880
1.320;-4.718114;0.495138
1.330;-4.713990;0.489450
1.340;-4.711171;0.484593
1.350;-4.709851;0.481190
1.360;-4.710070;0.479529
1.370;-4.711750;0.479496
1.380;-4.714731;0.480689
1.390;-4.718785;0.482646
1.400;-4.723645;0.485067
1.410;-4.729044;0.487925
1.420;-4.734766;0.491428
1.430;-4.740699;0.495872
1.440;-4.746851;0.501498
1.450;-4.753333;0.508421
1.460;-4.760270;0.516621
1.470;-4.767689;0.525946
1.480;-4.775402;0.536112
1.490;-4.782967;0.546717
1.500;-4.789753;0.557329
1.510;-4.795098;0.567624
1.520;-4.798520;0.577523
1.530;-4.799907;0.587241
1.540;-4.799621;0.597199
1.550;-4.798448;0.607815
1.560;-4.797381;0.619274
1.570;-4.797318;0.631372
1.580;-4.798811;0.643526
1.590;-4.801963;0.654927
1.600;-4.806478;0.664775
1.610;-4.811823;0.672503
1.620;-4.817410;0.677943
1.630;-4.822780;0.681387
1.640;-4.827723;0.683493
1.650;-4.832294;0.685029
1.660;-4.836720;0.686572
1.670;-4.841234;0.688292
1.680;-4.845901;0.689960
1.690;-4.850553;0.691143
1.700;-4.854884;0.691473
1.710;-4.858668;0.690855
1.720;-4.861956;0.689535
1.730;-4.865141;0.688024
1.740;-4.868840;0.686887
1.750;-4.873677;0.686521
1.760;-4.880074;0.687019
1.770;-4.888124;0.688205
1.780;-4.897591;0.689826
1.790;-4.908037;0.691759
1.800;-4.919017;0.694106
1.810;-4.930264;0.697106
1.820;-4.941777;0.700949
1.830;-4.953750;0.705612
1.840;-4.966401;0.710821
1.850;-4.979780;0.716127
1.860;-4.993690;0.721057
1.870;-5.007764;0.725252
1.880;-5.021665;0.728540
1.890;-5.035300;0.730950
1.900;-5.048915;0.732695
1.910;-5.063021;0.734133
1.920;-5.078183;0.735703
1.930;-5.094809;0.737823
1.940;-5.113072;0.740765
1.950;-5.133019;0.744572
1.960;-5.154789;0.749079
1.970;-5.178821;0.754010
1.980;-5.205890;0.759061
1.990;-5.236945;0.763958
2.000;-5.272753;0.768465
2.010;-5.313484;0.772418
2.020;-5.358353;0.775771
2.030;-5.405470;0.778641
2.040;-5.451980;0.781304
2.050;-5.494520;0.784126
2.060;-5.529912;0.787428
2.070;-5.555903;0.791367
2.080;-5.571703;0.795873
2.090;-5.578111;0.800675
2.100;-5.577162;0.805371
2.110;-5.571483;0.809515
2.120;-5.563599;0.812721
2.130;-5.555451;0.814766
2.140;-5.548221;0.815674
2.150;-5.542406;0.815756
2.160;-5.538010;0.815564
2.170;-5.534746;0.815773
2.180;-5.532210;0.816989
2.190;-5.530032;0.819592
2.200;-5.527965;0.823643
2.210;-5.525893;0.828890
2.220;-5.523740;0.834819
2.230;-5.521327;0.840756
2.240;-5.518273;0.845991
2.250;-5.514022;0.849925
2.260;-5.508005;0.852195
2.270;-5.499875;0.852748
2.280;-5.489689;0.851841
2.290;-5.477956;0.849966
2.300;-5.465519;0.847696
2.310;-5.453326;0.845520
2.320;-5.442161;0.843721
2.330;-5.432411;0.842359
2.340;-5.423951;0.841339
2.350;-5.416165;0.840486
2.360;-5.408098;0.839599
2.370;-5.398690;0.838472
2.380;-5.387022;0.836921
2.390;-5.372510;0.834838
2.400;-5.355003;0.832262
2.410;-5.334795;0.829396
2.420;-5.312571;0.826557
2.430;-5.289308;0.824071
2.440;-5.266140;0.822147
2.450;-5.244195;0.820800
2.460;-5.224418;0.819837
2.470;-5.207416;0.818966
2.480;-5.193367;0.817949
2.490;-5.182008;0.816754
2.500;-5.172742;0.815582
2.510;-5.164849;0.814759
2.520;-5.157741;0.814544
2.530;-5.151196;0.814978
2.540;-5.145449;0.815858
2.550;-5.141086;0.816843
2.560;-5.138794;0.817616
2.570;-5.139066;0.818013
2.580;-5.141984;0.818078
2.590;-5.147138;0.818044
2.600;-5.153685;0.818281
2.610;-5.160505;0.819196
2.620;-5.166420;0.821124
2.630;-5.170434;0.824230
2.640;-5.171944;0.828442
2.650;-5.170842;0.833448
2.660;-5.167481;0.838775
2.670;-5.162522;0.843947
2.680;-5.156747;0.848653
2.690;-5.150910;0.852824
2.700;-5.145671;0.856559
2.710;-5.141570;0.859978
2.720;-5.139015;0.863147
2.730;-5.138253;0.866145
2.740;-5.139355;0.869182
2.750;-5.142202;0.872629
2.760;-5.146500;0.876918
2.770;-5.151808;0.882374
2.780;-5.157628;0.889081
2.790;-5.163526;0.896850
2.800;-5.169251;0.905309
2.810;-5.174770;0.914084
2.820;-5.180207;0.922965
2.830;-5.185746;0.931975
2.840;-5.191577;0.941278
2.850;-5.197888;0.950988
2.860;-5.204889;0.961012
2.870;-5.212785;0.971042
2.880;-5.221703;0.980699
2.890;-5.231580;0.989727
2.900;-5.242110;0.998072
2.910;-5.252787;1.005819
2.920;-5.263025;1.013040
2.930;-5.272294;1.019675
2.940;-5.280209;1.025548
2.950;-5.286565;1.030504
2.960;-5.291306;1.034563
2.970;-5.294433;1.037978
2.980;-5.295880;1.041149
2.990;-5.295455;1.044439
3.000;-5.292893;1.047994
3.010;-5.288032;1.051649
3.020;-5.281017;1.054984
3.030;-5.272417;1.057491
3.040;-5.263175;1.058801
3.050;-5.254401;1.058849
3.060;-5.247051;1.057918
3.070;-5.241634;1.056528
3.080;-5.238051;1.055237
3.090;-5.235692;1.054446
3.100;-5.233726;1.054262
3.110;-5.231453;1.054458
3.120;-5.228519;1.054521
3.130;-5.224927;1.053786
3.140;-5.220896;1.051631
3.150;-5.216686;1.047659
3.160;-5.212498;1.041817
3.170;-5.208450;1.034413
3.180;-5.204572;1.026018
3.190;-5.200805;1.017275
3.200;-5.197006;1.008662
3.210;-5.192996;1.000310
3.220;-5.188637;0.991967
3.230;-5.183880;0.983130
3.240;-5.178744;0.973284
3.250;-5.173227;0.962147
3.260;-5.167220;0.949798
3.270;-5.160481;0.936670
3.280;-5.152696;0.923416
3.290;-5.143596;0.910724
3.300;-5.133072;0.899119
3.310;-5.121236;0.888829
3.320;-5.108422;0.879757
3.330;-5.095102;0.871585
3.340;-5.081773;0.863945
3.350;-5.068836;0.856582
3.360;-5.056536;0.849446
3.370;-5.044967;0.842737
3.380;-5.034155;0.836874
3.390;-5.024204;0.832385
3.400;-5.015423;0.829727
3.410;-5.008327;0.829125
3.420;-5.003446;0.830475
3.430;-5.001016;0.833356
3.440;-5.000735;0.837109
3.450;-5.001730;0.840941
3.460;-5.002769;0.844057
3.470;-5.002626;0.845820
3.480;-5.000443;0.845906
3.490;-4.995972;0.844400
3.500;-4.989607;0.841768
3.510;-4.982208;0.838717
3.520;-4.974789;0.836001
3.530;-4.968194;0.834240
3.540;-4.962894;0.833809
3.550;-4.958941;0.834780
3.560;-4.956074;0.836871
3.570;-4.953917;0.839426
3.580;-4.952180;0.841462
3.590;-4.950785;0.841853
3.600;-4.949871;0.839637
3.610;-4.949707;0.834363
3.620;-4.950583;0.826306
3.630;-4.952728;0.816420
3.640;-4.956268;0.806006
3.650;-4.961203;0.796240
3.660;-4.967393;0.787790
3.670;-4.974546;0.780692
3.680;-4.982248;0.774496
3.690;-4.990042;0.768547
3.700;-4.997553;0.762244
3.710;-5.004613;0.755220
3.720;-5.011310;0.747456
3.730;-5.017934;0.739316
3.740;-5.024824;0.731483
3.750;-5.032198;0.724769
3.760;-5.040037;0.719840
3.770;-5.048079;0.716967
3.780;-5.055898;0.715900
3.790;-5.063064;0.715911
3.800;-5.069300;0.715964
3.810;-5.074593;0.714929
3.820;-5.079166;0.711790
3.830;-5.083343;0.705831
3.840;-5.087382;0.696779
3.850;-5.091405;0.684883
3.860;-5.095451;0.670867
3.870;-5.099578;0.655743
3.880;-5.103937;0.640517
3.890;-5.108768;0.625884
3.900;-5.114342;0.612070
3.910;-5.120927;0.598914
3.920;-5.128783;0.586140
3.930;-5.138163;0.573646
3.940;-5.149256;0.561653
3.950;-5.162065;0.550632
3.960;-5.176302;0.541108
3.970;-5.191363;0.533462
3.980;-5.206427;0.527845
3.990;-5.220623;0.524211
4.000;-5.233224;0.522422
4.010;-5.243796;0.522314
4.020;-5.252276;0.523718
4.030;-5.258957;0.526417
4.040;-5.264406;0.530089
4.050;-5.269309;0.534276
4.060;-5.274264;0.538423
4.070;-5.279577;0.541966
4.080;-5.285150;0.544451
4.090;-5.290534;0.545635
4.100;-5.295132;0.545536
4.110;-5.298456;0.544432
4.120;-5.300327;0.542780
4.130;-5.300932;0.541087
4.140;-5.300758;0.539778
4.150;-5.300454;0.539084
4.160;-5.300633;0.539011
4.170;-5.301668;0.539388
4.180;-5.303526;0.539963
4.190;-5.305733;0.540487
4.200;-5.307501;0.540790
4.210;-5.307992;0.540810
4.220;-5.306617;0.540615
4.230;-5.303232;0.540364
4.240;-5.298153;0.540253
4.250;-5.291991;0.540452
4.260;-5.285408;0.541054
4.270;-5.278859;0.542079
4.280;-5.272434;0.543518
4.290;-5.265844;0.545403
4.300;-5.258560;0.547853
4.310;-5.250068;0.551090
4.320;-5.240113;0.555402
4.330;-5.228837;0.561068
4.340;-5.216759;0.568251
4.350;-5.204633;0.576906
4.360;-5.193265;0.586765
4.370;-5.183327;0.597430
4.380;-5.175221;0.608528
4.390;-5.168998;0.619849
4.400;-5.164347;0.631388
4.410;-5.160683;0.643298
4.420;-5.157276;0.655798
4.430;-5.153394;0.669100
4.440;-5.148415;0.683362
4.450;-5.141910;0.698672
4.460;-5.133718;0.715035
4.470;-5.124005;0.732354
4.480;-5.113278;0.750408
4.490;-5.102319;0.768859
4.500;-5.092072;0.787281
4.510;-5.083471;0.805218
4.520;-5.077270;0.822250
4.530;-5.073889;0.838050
4.540;-5.073338;0.852421
4.550;-5.075240;0.865306
4.560;-5.078948;0.876784
4.570;-5.083734;0.887063
4.580;-5.088981;0.896461
4.590;-5.094318;0.905338
4.600;-5.099664;0.913995
4.610;-5.105184;0.922606
4.620;-5.111194;0.931233
4.630;-5.118019;0.939936
4.640;-5.125859;0.948869
4.650;-5.134686;0.958280
4.660;-5.144203;0.968408
4.670;-5.153862;0.979340
4.680;-5.162917;0.990922
4.690;-5.170490;1.002771
4.700;-5.175716;1.014387
4.710;-5.177953;1.025343
4.720;-5.177001;1.035452
4.730;-5.173226;1.044825
4.740;-5.167490;1.053802
4.750;-5.160876;1.062800
4.760;-5.154317;1.072137
4.770;-5.148270;1.081903
4.780;-5.142593;1.091917
4.790;-5.136670;1.101788
4.800;-5.129719;1.111077
4.810;-5.121148;1.119477
4.820;-5.110838;1.126940
4.830;-5.099269;1.133690
4.840;-5.087447;1.140115
4.850;-5.076643;1.146604
4.860;-5.068032;1.153423
4.870;-5.062330;1.160637
4.880;-5.059593;1.168120
4.890;-5.059221;1.175589
4.900;-5.060190;1.182678
4.910;-5.061400;1.189023
4.920;-5.061993;1.194357
4.930;-5.061568;1.198596
4.940;-5.060237;1.201885
4.950;-5.058556;1.204589
4.960;-5.057383;1.207224
4.970;-5.057666;1.210325
4.980;-5.060243;1.214285
4.990;-5.065660;1.219233
5.000;-5.074080;1.224999
5.010;-5.085262;1.231191
5.020;-5.098589;1.237339
5.030;-5.113118;1.243034
5.040;-5.127687;1.248016
5.050;-5.141109;1.252184
5.060;-5.152433;1.255553
5.070;-5.161166;1.258203
5.080;-5.167370;1.260251
5.090;-5.171566;1.261850
5.100;-5.174517;1.263184
5.110;-5.176961;1.264431
5.120;-5.179389;1.265671
5.130;-5.181916;1.266782
5.140;-5.184309;1.267376
5.150;-5.186147;1.266870
5.160;-5.187063;1.264673
5.170;-5.186948;1.260459
5.180;-5.186029;1.254369
5.190;-5.184777;1.247019
5.200;-5.183703;1.239276
5.210;-5.183135;1.231894
5.220;-5.183078;1.225197
5.230;-5.183197;1.218978
5.240;-5.182933;1.212636
5.250;-5.181700;1.205467
5.260;-5.179091;1.196928
5.270;-5.175035;1.186765
5.280;-5.169835;1.175000
5.290;-5.164059;1.161824
5.300;-5.158321;1.147478
5.310;-5.153023;1.132166
5.320;-5.148159;1.116018
5.330;-5.143282;1.099117
5.340;-5.137649;1.081529
5.350;-5.130501;1.063325
5.360;-5.121390;1.044581
5.370;-5.110404;1.025356
5.380;-5.098202;1.005680
5.390;-5.085825;0.985532
5.400;-5.074336;0.964821
5.410;-5.064446;0.943391
5.420;-5.056270;0.921070
5.430;-5.049320;0.897773
5.440;-5.042743;0.873619
5.450;-5.035684;0.848993
5.460;-5.027602;0.824482
5.470;-5.018406;0.800689
5.480;-5.008361;0.778021
5.490;-4.997884;0.756529
5.500;-4.987367;0.735879
5.510;-4.977146;0.715450
5.520;-4.967569;0.694545
5.530;-4.959074;0.672663
5.540;-4.952161;0.649723
5.550;-4.947270;0.626152
5.560;-4.944652;0.602752
5.570;-4.944300;0.580418
5.580;-4.946011;0.559821
5.590;-4.949512;0.541238
5.600;-4.954590;0.524566
5.610;-4.961154;0.509494
5.620;-4.969169;0.495692
5.630;-4.978532;0.482934
5.640;-4.988941;0.471118
5.650;-4.999874;0.460202
5.660;-5.010704;0.450099
5.670;-5.020888;0.440616
5.680;-5.030140;0.431445
5.690;-5.038505;0.422215
5.700;-5.046286;0.412564
5.710;-5.053860;0.402229
5.720;-5.061481;0.391158
5.730;-5.069159;0.379594
5.740;-5.076672;0.368065
5.750;-5.083704;0.357247
5.760;-5.090008;0.347747
5.770;-5.095551;0.339892
5.780;-5.100575;0.333622
5.790;-5.105565;0.328543
5.800;-5.111085;0.324106
5.810;-5.117551;0.319820
5.820;-5.125034;0.315435
5.830;-5.133210;0.311018
5.840;-5.141495;0.306917
5.850;-5.149295;0.303658
5.860;-5.156261;0.301801
5.870;-5.162450;0.301817
5.880;-5.168319;0.303964
5.890;-5.174585;0.308224
5.900;-5.181986;0.314363
5.910;-5.191056;0.322112
5.920;-5.201999;0.331368
5.930;-5.214698;0.342284
5.940;-5.228812;0.355171
5.950;-5.243904;0.370275
5.960;-5.259588;0.387541
5.970;-5.275633;0.406501
5.980;-5.292009;0.426364
5.990;-5.308826;0.446271
6.000;-5.326187;0.465619
6.010;-5.344023;0.484299
6.020;-5.362013;0.502734
6.030;-5.379611;0.521693
6.040;-5.396149;0.541964
6.050;-5.410941;0.564026
6.060;-5.423340;0.587866
6.070;-5.432778;0.612979
6.080;-5.438820;0.638546
6.090;-5.441289;0.663687
6.100;-5.440387;0.687688
6.110;-5.436752;0.710136
6.120;-5.431355;0.730929
6.130;-5.425262;0.750209
6.140;-5.419333;0.768265
6.150;-5.414006;0.785442
6.160;-5.409238;0.802063
6.170;-5.404593;0.818313
6.180;-5.399409;0.834127
6.190;-5.392973;0.849127
6.200;-5.384649;0.862699
6.210;-5.373985;0.874167
6.220;-5.360808;0.883007
6.230;-5.345316;0.888994
6.240;-5.328099;0.892244
6.250;-5.310061;0.893154
6.260;-5.292242;0.892281
6.270;-5.275620;0.890185
6.280;-5.260949;0.887296
6.290;-5.248642;0.883858
6.300;-5.238696;0.879968
6.310;-5.230667;0.875647
6.320;-5.223714;0.870876
6.330;-5.216759;0.865558
6.340;-5.208757;0.859444
6.350;-5.199023;0.852140
6.360;-5.187483;0.843217
6.370;-5.174705;0.832409
6.380;-5.161687;0.819766
6.390;-5.149487;0.805690
6.400;-5.138883;0.790840
6.410;-5.130183;0.775960
6.420;-5.123247;0.761732
6.430;-5.117660;0.748713
6.440;-5.112957;0.737346
6.450;-5.108784;0.727966
6.460;-5.104961;0.720779
6.470;-5.101451;0.715804
6.480;-5.098280;0.712829
6.490;-5.095464;0.711441
6.500;-5.092956;0.711125
6.510;-5.090647;0.711413
6.520;-5.088390;0.712022
6.530;-5.086030;0.712898
6.540;-5.083403;0.714179
6.550;-5.080317;0.716103
6.560;-5.076559;0.718958
6.570;-5.071963;0.723016
6.580;-5.066536;0.728451
6.590;-5.060551;0.735221
6.600;-5.054520;0.743006
6.610;-5.049044;0.751269
6.620;-5.044594;0.759422
6.630;-5.041360;0.767003
6.640;-5.039224;0.773820
6.650;-5.037844;0.780010
6.660;-5.036794;0.786028
6.670;-5.035715;0.792544
6.680;-5.034412;0.800259
6.690;-5.032875;0.809698
6.700;-5.031220;0.821081
6.710;-5.029575;0.834336
6.720;-5.027977;0.849226
6.730;-5.026346;0.865496
6.740;-5.024523;0.882915
6.750;-5.022348;0.901199
6.760;-5.019731;0.919880
6.770;-5.016694;0.938248
6.780;-5.013367;0.955431
6.790;-5.009929;0.970589
6.800;-5.006505;0.983133
6.810;-5.003081;0.992856
6.820;-4.999466;0.999949
6.830;-4.995345;1.004892
6.840;-4.990396;1.008268
6.850;-4.984402;1.010548
6.860;-4.977306;1.011897
6.870;-4.969218;1.012101
6.880;-4.960425;1.010620
6.890;-4.951406;1.006808
6.900;-4.942774;1.000201
6.910;-4.935137;0.990754
6.920;-4.928892;0.978926
6.930;-4.924076;0.965568
6.940;-4.920368;0.951702
6.950;-4.917223;0.938292
6.960;-4.914089;0.926099
6.970;-4.910588;0.915632
6.980;-4.906609;0.907156
6.990;-4.902286;0.900722
7.000;-4.897875;0.896194
7.010;-4.893612;0.893283
7.020;-4.889579;0.891591
7.030;-4.885655;0.890681
7.040;-4.881567;0.890166
7.050;-4.877038;0.889791
7.060;-4.871960;0.889482
7.070;-4.866499;0.889301
7.080;-4.861085;0.889333
7.090;-4.856295;0.889563
7.100;-4.852674;0.889828
7.110;-4.850561;0.889858
7.120;-4.849956;0.889384
7.130;-4.850455;0.888216
7.140;-4.851293;0.886258
7.150;-4.851534;0.883460
7.160;-4.850381;0.879749
7.170;-4.847514;0.875003
7.180;-4.843291;0.869060
7.190;-4.838683;0.861751
7.200;-4.834983;0.852946
7.210;-4.833398;0.842625
7.220;-4.834694;0.830964
7.230;-4.838998;0.818423
7.240;-4.845790;0.805765
7.250;-4.854073;0.793970
7.260;-4.862684;0.784022
7.270;-4.870614;0.776636
7.280;-4.877251;0.772045
7.290;-4.882435;0.769919
7.300;-4.886357;0.769471
7.310;-4.889340;0.769699
7.320;-4.891625;0.769694
7.330;-4.893251;0.768884
7.340;-4.894060;0.767126
7.350;-4.893841;0.764647
7.360;-4.892521;0.761862
7.370;-4.890310;0.759193
7.380;-4.887710;0.756895
7.390;-4.885370;0.754966
7.400;-4.883841;0.753162
7.410;-4.883340;0.751151
7.420;-4.883632;0.748728
7.430;-4.884095;0.745991
7.440;-4.883957;0.743348
7.450;-4.882599;0.741331
7.460;-4.879807;0.740295
7.470;-4.875856;0.740183
7.480;-4.871416;0.740483
7.490;-4.867295;0.740429
7.500;-4.864150;0.739333
7.510;-4.862278;0.736866
7.520;-4.861599;0.733163
7.530;-4.861842;0.728717
7.540;-4.862804;0.724125
7.550;-4.864531;0.719817
7.560;-4.867303;0.715892
7.570;-4.871445;0.712141
7.580;-4.877075;0.708259
7.590;-4.883961;0.704081
7.600;-4.891546;0.699703
7.610;-4.899119;0.695405
7.620;-4.906010;0.691452
7.630;-4.911738;0.687949
7.640;-4.916097;0.684852
7.650;-4.919198;0.682091
7.660;-4.921481;0.679681
7.670;-4.923660;0.677754
7.680;-4.926608;0.676494
7.690;-4.931171;0.676052
7.700;-4.937965;0.676475
7.710;-4.947221;0.677676
7.720;-4.958755;0.679473
7.730;-4.972042;0.681687
7.740;-4.986365;0.684266
7.750;-5.000957;0.687344
7.760;-5.015110;0.691181
7.770;-5.028253;0.695994
7.780;-5.040015;0.701786
7.790;-5.050307;0.708284
7.800;-5.059376;0.715026
7.810;-5.067789;0.721514
7.820;-5.076281;0.727354
7.830;-5.085496;0.732294
7.840;-5.095727;0.736193
7.850;-5.106797;0.738973
7.860;-5.118137;0.740605
7.870;-5.129031;0.741163
7.880;-5.138902;0.740893
7.890;-5.147542;0.740229
7.900;-5.155160;0.739676
7.910;-5.162247;0.739603
7.920;-5.169285;0.740043
7.930;-5.176479;0.740647
7.940;-5.183654;0.740818
7.950;-5.190361;0.739992
7.960;-5.196114;0.737918
7.970;-5.200607;0.734812
7.980;-5.203833;0.731319
