Time[s];COPx[cm];COPy[cm]
0.010;-0.019849;-0.143167
0.020;-0.018667;-0.150675
0.030;-0.018346;-0.156846
0.040;-0.019529;-0.160620
0.050;-0.022460;-0.161422
0.060;-0.026928;-0.159202
0.070;-0.032357;-0.154361
0.080;-0.038031;-0.147601
0.090;-0.043381;-0.139732
0.100;-0.048216;-0.131499
0.110;-0.052763;-0.123473
0.120;-0.057513;-0.116025
0.130;-0.062947;-0.109360
0.140;-0.069346;-0.103535
0.150;-0.076751;-0.098476
0.160;-0.085088;-0.094008
0.170;-0.094325;-0.089919
0.180;-0.104548;-0.086060
0.190;-0.115902;-0.082439
0.200;-0.128449;-0.079242
0.210;-0.142037;-0.076789
0.220;-0.156279;-0.075440
0.230;-0.170662;-0.075533
0.240;-0.184723;-0.077371
0.250;-0.198195;-0.081243
0.260;-0.211004;-0.087440
0.270;-0.223120;-0.096227
0.280;-0.234384;-0.107775
0.290;-0.244424;-0.122058
0.300;-0.252769;-0.138786
0.310;-0.259063;-0.157428
0.320;-0.263276;-0.177336
0.330;-0.265750;-0.197909
0.340;-0.267063;-0.218718
0.350;-0.267799;-0.239553
0.360;-0.268335;-0.260369
0.370;-0.268767;-0.281187
0.380;-0.268961;-0.302006
0.390;-0.268710;-0.322786
0.400;-0.267909;-0.343475
0.410;-0.266660;-0.364028
0.420;-0.265274;-0.384389
0.430;-0.264175;-0.404431
0.440;-0.263778;-0.423919
0.450;-0.264419;-0.442530
0.460;-0.266349;-0.459935
0.470;-0.269788;-0.475893
0.480;-0.274973;-0.490289
0.490;-0.282167;-0.503110
0.500;-0.291626;-0.514400
0.510;-0.303533;-0.524255
0.520;-0.317923;-0.532869
0.530;-0.334632;-0.540553
0.540;-0.353278;-0.547667
0.550;-0.373317;-0.554506
0.560;-0.394163;-0.561184
0.570;-0.415348;-0.567611
0.580;-0.436663;-0.573565
0.590;-0.458232;-0.578835
0.600;-0.480479;-0.583338
0.610;-0.504004;-0.587160
0.620;-0.529390;-0.590512
0.630;-0.556975;-0.593645
0.640;-0.586658;-0.596790
0.650;-0.617801;-0.600122
0.660;-0.649292;-0.603733
0.670;-0.679773;-0.607587
0.680;-0.707993;-0.611487
0.690;-0.733150;-0.615109
0.700;-0.755134;-0.618119
0.710;-0.774549;-0.620353
0.720;-0.792533;-0.621961
0.730;-0.810431;-0.623446
0.740;-0.829430;-0.625576
0.750;-0.850290;-0.629205
0.760;-0.873215;-0.635066
0.770;-0.897911;-0.643575
0.780;-0.923771;-0.654699
0.790;-0.950130;-0.667920
0.800;-0.976516;-0.682338
0.810;-1.002803;-0.696888
0.820;-1.029184;-0.710574
0.830;-1.055971;-0.722636
0.840;-1.083307;-0.732582
0.850;-1.110967;-0.740108
0.860;-1.138378;-0.744999
0.870;-1.164851;-0.747102
0.880;-1.189856;-0.746408
0.890;-1.213153;-0.743152
0.900;-1.234707;-0.737828
0.910;-1.254477;-0.731078
0.920;-1.272237;-0.723502
0.930;-1.287542;-0.715527
0.940;-1.299825;-0.707373
0.950;-1.308580;-0.699108
0.960;-1.313530;-0.690744
0.970;-1.314743;-0.682326
0.980;-1.312658;-0.673989
0.990;-1.308001;-0.665966
1.000;-1.301618;-0.658592
1.010;-1.294264;-0.652267
1.020;-1.286410;-0.647395
1.030;-1.278114;-0.644241
1.040;-1.269017;-0.642744
1.050;-1.258451;-0.642358
1.060;-1.245648;-0.642050
1.070;-1.229953;-0.640505
1.080;-1.211012;-0.636508
1.090;-1.188892;-0.629351
1.100;-1.164115;-0.619071
1.110;-1.137600;-0.606420
1.120;-1.110514;-0.592576
1.130;-1.084029;-0.578745
1.140;-1.059031;-0.565820
1.150;-1.035909;-0.554224
1.160;-1.014521;-0.543974
1.170;-0.994358;-0.534866
1.180;-0.974837;-0.526673
1.190;-0.955599;-0.519234
1.200;-0.936703;-0.512425
1.210;-0.918646;-0.506081
1.220;-0.902201;-0.499960
1.230;-0.888125;-0.493813
1.240;-0.876864;-0.487563
1.250;-0.868385;-0.481467
1.260;-0.862165;-0.476140
1.270;-0.857350;-0.472351
1.280;-0.852983;-0.470658
1.290;-0.848223;-0.471078
1.300;-0.842494;-0.472985
1.310;-0.835532;-0.475338
1.320;-0.827359;-0.477132
1.330;-0.818229;-0.477846
1.340;-0.808557;-0.477635
1.350;-0.798817;-0.477187
1.360;-0.789409;-0.477321
1.370;-0.780563;-0.478539
1.380;-0.772313;-0.480762
1.390;-0.764566;-0.483338
1.400;-0.757197;-0.485285
1.410;-0.750131;-0.485638
1.420;-0.743371;-0.483783
1.430;-0.736963;-0.479645
1.440;-0.730921;-0.473687
1.450;-0.725189;-0.466711
1.460;-0.719669;-0.459553
1.470;-0.714303;-0.452790
1.480;-0.709152;-0.446590
1.490;-0.704383;-0.440726
1.500;-0.700158;-0.434714
1.510;-0.696468;-0.428003
1.520;-0.692988;-0.420136
1.530;-0.689053;-0.410859
1.540;-0.683771;-0.400134
1.550;-0.676241;-0.388070
1.560;-0.665768;-0.374839
1.570;-0.651994;-0.360644
1.580;-0.634904;-0.345731
1.590;-0.614764;-0.330368
1.600;-0.592027;-0.314762
1.610;-0.567258;-0.298931
1.620;-0.541051;-0.282653
1.630;-0.513904;-0.265533
1.640;-0.486086;-0.247189
1.650;-0.457526;-0.227458
1.660;-0.427823;-0.206536
1.670;-0.396405;-0.184919
1.680;-0.362792;-0.163178
1.690;-0.326852;-0.141680
1.700;-0.288956;-0.120450
1.710;-0.249973;-0.099231
1.720;-0.211160;-0.077701
1.730;-0.173978;-0.055693
1.740;-0.139904;-0.033346
1.750;-0.110263;-0.011125
1.760;-0.086095;0.010280
1.770;-0.068078;0.030138
1.780;-0.056528;0.047881
1.790;-0.051463;0.063267
1.800;-0.052698;0.076428
1.810;-0.059911;0.087767
1.820;-0.072669;0.097758
1.830;-0.090420;0.106761
1.840;-0.112498;0.114959
1.850;-0.138146;0.122453
1.860;-0.166558;0.129440
1.870;-0.196878;0.136341
1.880;-0.228164;0.143806
1.890;-0.259363;0.152549
1.900;-0.289369;0.163078
1.910;-0.317187;0.175434
1.920;-0.342161;0.189061
1.930;-0.364118;0.202902
1.940;-0.383339;0.215680
1.950;-0.400337;0.226291
1.960;-0.415570;0.234124
1.970;-0.429254;0.239198
1.980;-0.441380;0.242037
1.990;-0.451906;0.243349
2.000;-0.460997;0.243668
2.010;-0.469156;0.243144
2.020;-0.477171;0.241570
2.030;-0.485913;0.238606
2.040;-0.496081;0.234051
2.050;-0.508042;0.227989
2.060;-0.521830;0.220786
2.070;-0.537285;0.212959
2.080;-0.554232;0.205016
2.090;-0.572602;0.197309
2.100;-0.592464;0.189926
2.110;-0.613988;0.182661
2.120;-0.637376;0.175090
2.130;-0.662776;0.166767
2.140;-0.690196;0.157432
2.150;-0.719424;0.147164
2.160;-0.750023;0.136409
2.170;-0.781418;0.125881
2.180;-0.813071;0.116401
2.190;-0.844638;0.108725
2.200;-0.876048;0.103443
2.210;-0.907468;0.100946
2.220;-0.939182;0.101438
2.230;-0.971452;0.104943
2.240;-1.004395;0.111307
2.250;-1.037901;0.120200
2.260;-1.071602;0.131108
2.270;-1.104887;0.143360
2.280;-1.136992;0.156181
2.290;-1.167175;0.168831
2.300;-1.194916;0.180772
2.310;-1.220039;0.191795
2.320;-1.242660;0.202022
2.330;-1.262980;0.211801
2.340;-1.281052;0.221560
2.350;-1.296656;0.231696
2.360;-1.309368;0.242524
2.370;-1.318822;0.254247
2.380;-1.325003;0.266946
2.390;-1.328440;0.280535
2.400;-1.330178;0.294737
2.410;-1.331550;0.309081
2.420;-1.333833;0.322987
2.430;-1.337927;0.335930
2.440;-1.344169;0.347602
2.450;-1.352369;0.357990
2.460;-1.362033;0.367314
2.470;-1.372684;0.375863
2.480;-1.384100;0.383827
2.490;-1.396424;0.391172
2.500;-1.410116;0.397612
2.510;-1.425847;0.402681
2.520;-1.444377;0.405878
2.530;-1.466431;0.406852
2.540;-1.492531;0.405535
2.550;-1.522762;0.402188
2.560;-1.556541;0.397337
2.570;-1.592523;0.391610
2.580;-1.628816;0.385540
2.590;-1.663447;0.379407
2.600;-1.694886;0.373181
2.610;-1.722352;0.366589
2.620;-1.745776;0.359281
2.630;-1.765499;0.351043
2.640;-1.781921;0.341970
2.650;-1.795236;0.332518
2.660;-1.805359;0.323365
2.670;-1.811980;0.315157
2.680;-1.814686;0.308277
2.690;-1.813072;0.302764
2.700;-1.806785;0.298391
2.710;-1.795511;0.294822
2.720;-1.778980;0.291760
2.730;-1.757053;0.289048
2.740;-1.729894;0.286694
2.750;-1.698134;0.284812
2.760;-1.662905;0.283511
2.770;-1.625681;0.282755
2.780;-1.587981;0.282253
2.790;-1.551054;0.281440
2.800;-1.515708;0.279574
2.810;-1.482326;0.275955
2.820;-1.451020;0.270182
2.830;-1.421800;0.262362
2.840;-1.394660;0.253162
2.850;-1.369552;0.243665
2.860;-1.346300;0.235061
2.870;-1.324525;0.228286
2.880;-1.303630;0.223778
2.890;-1.282875;0.221454
2.900;-1.261492;0.220883
2.910;-1.238822;0.221537
2.920;-1.214415;0.222999
2.930;-1.188078;0.225061
2.940;-1.159869;0.227698
2.950;-1.130025;0.230972
2.960;-1.098839;0.234881
2.970;-1.066511;0.239200
2.980;-1.033036;0.243393
2.990;-0.998206;0.246653
3.000;-0.961725;0.248070
3.010;-0.923369;0.246872
3.020;-0.883111;0.242617
3.030;-0.841159;0.235237
3.040;-0.797934;0.224915
3.050;-0.754020;0.211900
3.060;-0.710099;0.196377
3.070;-0.666890;0.178455
3.080;-0.625070;0.158250
3.090;-0.585202;0.135968
3.100;-0.547641;0.111961
3.110;-0.512472;0.086744
3.120;-0.479503;0.060991
3.130;-0.448331;0.035529
3.140;-0.418449;0.011296
3.150;-0.389359;-0.010770
3.160;-0.360643;-0.029925
3.170;-0.332006;-0.045819
3.180;-0.303251;-0.058593
3.190;-0.274218;-0.068782
3.200;-0.244679;-0.077034
3.210;-0.214242;-0.083790
3.220;-0.182341;-0.089105
3.230;-0.148339;-0.092680
3.240;-0.111725;-0.094069
3.250;-0.072318;-0.092894
3.260;-0.030352;-0.088958
3.270;0.013588;-0.082216
3.280;0.058777;-0.072692
3.290;0.104588;-0.060446
3.300;0.150641;-0.045623
3.310;0.196801;-0.028536
3.320;0.243039;-0.009677
3.330;0.289276;0.010353
3.340;0.335260;0.030932
3.350;0.380512;0.051464
3.360;0.424320;0.071366
3.370;0.465756;0.090077
3.380;0.503735;0.107102
3.390;0.537128;0.122078
3.400;0.564925;0.134781
3.410;0.586429;0.145033
3.420;0.601380;0.152576
3.430;0.609978;0.157008
3.440;0.612779;0.157873
3.450;0.610518;0.154863
3.460;0.603971;0.148024
3.470;0.593892;0.137831
3.480;0.581040;0.125076
3.490;0.566204;0.110635
3.500;0.550167;0.095193
3.510;0.533604;0.079032
3.520;0.516996;0.061906
3.530;0.500624;0.043043
3.540;0.484664;0.021295
3.550;0.469316;-0.004574
3.560;0.454911;-0.035520
3.570;0.441915;-0.071883
3.580;0.430823;-0.113226
3.590;0.422003;-0.158412
3.600;0.415578;-0.205895
3.610;0.411432;-0.254132
3.620;0.409326;-0.301950
3.630;0.409037;-0.348763
3.640;0.410432;-0.394552
3.650;0.413441;-0.439656
3.660;0.417986;-0.484459
3.670;0.423939;-0.529064
3.680;0.431157;-0.573075
3.690;0.439516;-0.615561
3.700;0.448911;-0.655234
3.710;0.459221;-0.690803
3.720;0.470280;-0.721399
3.730;0.481908;-0.746902
3.740;0.493957;-0.768043
3.750;0.506323;-0.786188
3.760;0.518906;-0.802860
3.770;0.531516;-0.819196
3.780;0.543804;-0.835582
3.790;0.555243;-0.851635
3.800;0.565190;-0.866524
3.810;0.572985;-0.879434
3.820;0.578063;-0.889951
3.830;0.580025;-0.898182
3.840;0.578671;-0.904639
3.850;0.574008;-0.909982
3.860;0.566253;-0.914795
3.870;0.555833;-0.919462
3.880;0.543356;-0.924172
3.890;0.529489;-0.928964
3.900;0.514794;-0.933769
3.910;0.499565;-0.938420
3.920;0.483772;-0.942652
3.930;0.467151;-0.946142
3.940;0.449430;-0.948607
3.950;0.430583;-0.949921
3.960;0.411015;-0.950161
3.970;0.391544;-0.949538
3.980;0.373198;-0.948237
3.990;0.356938;-0.946260
4.000;0.343429;-0.943379
4.010;0.332961;-0.939233
4.020;0.325494;-0.933518
4.030;0.320779;-0.926179
4.040;0.318499;-0.917507
4.050;0.318388;-0.908122
4.060;0.320315;-0.898839
4.070;0.324289;-0.890476
4.080;0.330396;-0.883627
4.090;0.338682;-0.878471
4.100;0.349017;-0.874689
4.110;0.361013;-0.871515
4.120;0.374035;-0.867935
4.130;0.387300;-0.862966
4.140;0.400028;-0.855928
4.150;0.411587;-0.846611
4.160;0.421560;-0.835274
4.170;0.429743;-0.822463
4.180;0.436071;-0.808752
4.190;0.440512;-0.794524
4.200;0.442978;-0.779915
4.210;0.443266;-0.764930
4.220;0.441070;-0.749630
4.230;0.436077;-0.734259
4.240;0.428103;-0.719233
4.250;0.417230;-0.704974
4.260;0.403870;-0.691694
4.270;0.388737;-0.679280
4.280;0.372726;-0.667360
4.290;0.356726;-0.655511
4.300;0.341449;-0.643481
4.310;0.327336;-0.631295
4.320;0.314557;-0.619221
4.330;0.303086;-0.607630
4.340;0.292787;-0.596863
4.350;0.283477;-0.587119
4.360;0.274982;-0.578423
4.370;0.267161;-0.570634
4.380;0.259927;-0.563505
4.390;0.253220;-0.556756
4.400;0.246961;-0.550158
4.410;0.241024;-0.543622
4.420;0.235243;-0.537242
4.430;0.229457;-0.531243
4.440;0.223530;-0.525839
4.450;0.217328;-0.521074
4.460;0.210658;-0.516755
4.470;0.203215;-0.512504
4.480;0.194596;-0.507904
4.490;0.184380;-0.502656
4.500;0.172266;-0.496715
4.510;0.158212;-0.490340
4.520;0.142502;-0.484061
4.530;0.125705;-0.478509
4.540;0.108557;-0.474182
4.550;0.091799;-0.471244
4.560;0.076036;-0.469466
4.570;0.061661;-0.468347
4.580;0.048843;-0.467359
4.590;0.037602;-0.466186
4.600;0.027895;-0.464857
4.610;0.019691;-0.463719
4.620;0.012977;-0.463284
4.630;0.007707;-0.464025
4.640;0.003746;-0.466205
4.650;0.000867;-0.469796
4.660;-0.001188;-0.474501
4.670;-0.002614;-0.479835
4.680;-0.003495;-0.485189
4.690;-0.003806;-0.489905
4.700;-0.003448;-0.493377
4.710;-0.002301;-0.495205
4.720;-0.000261;-0.495318
4.730;0.002698;-0.493988
4.740;0.006440;-0.491699
4.750;0.010618;-0.488962
4.760;0.014695;-0.486145
4.770;0.018058;-0.483415
4.780;0.020164;-0.480762
4.790;0.020663;-0.478091
4.800;0.019463;-0.475300
4.810;0.016724;-0.472315
4.820;0.012787;-0.469092
4.830;0.008070;-0.465619
4.840;0.002949;-0.461948
4.850;-0.002316;-0.458222
4.860;-0.007614;-0.454659
4.870;-0.012969;-0.451463
4.880;-0.018498;-0.448702
4.890;-0.024347;-0.446220
4.900;-0.030608;-0.443664
4.910;-0.037225;-0.440595
4.920;-0.043951;-0.436645
4.930;-0.050378;-0.431635
4.940;-0.056072;-0.425625
4.950;-0.060742;-0.418868
4.960;-0.064361;-0.411689
4.970;-0.067184;-0.404341
4.980;-0.069646;-0.396936
4.990;-0.072208;-0.389468
5.000;-0.075186;-0.381902
5.010;-0.078615;-0.374298
5.020;-0.082206;-0.366899
5.030;-0.085430;-0.360136
5.040;-0.087745;-0.354491
5.050;-0.088843;-0.350278
5.060;-0.088791;-0.347459
5.070;-0.087984;-0.345602
5.080;-0.086979;-0.344017
5.090;-0.086307;-0.341977
5.100;-0.086347;-0.338946
5.110;-0.087278;-0.334737
5.120;-0.089080;-0.329578
5.130;-0.091566;-0.324056
5.140;-0.094423;-0.318958
5.150;-0.097289;-0.315034
5.160;-0.099811;-0.312754
5.170;-0.101708;-0.312141
5.180;-0.102813;-0.312743
5.190;-0.103106;-0.313770
5.200;-0.102701;-0.314362
5.210;-0.101810;-0.313895
5.220;-0.100678;-0.312203
5.230;-0.099547;-0.309611
5.240;-0.098639;-0.306773
5.250;-0.098160;-0.304427
5.260;-0.098292;-0.303146
5.270;-0.099169;-0.303172
5.280;-0.100827;-0.304368
5.290;-0.103172;-0.306284
5.300;-0.105982;-0.308310
5.310;-0.108975;-0.309854
5.320;-0.111901;-0.310505
5.330;-0.114658;-0.310139
5.340;-0.117348;-0.308921
5.350;-0.120275;-0.307202
5.360;-0.123854;-0.305342
5.370;-0.128457;-0.303602
5.380;-0.134246;-0.302133
5.390;-0.141091;-0.301047
5.400;-0.148588;-0.300493
5.410;-0.156212;-0.300660
5.420;-0.163517;-0.301746
5.430;-0.170314;-0.303901
5.440;-0.176784;-0.307223
5.450;-0.183485;-0.311772
5.460;-0.191285;-0.317614
5.470;-0.201200;-0.324825
5.480;-0.214180;-0.333442
5.490;-0.230849;-0.343345
5.500;-0.251297;-0.354116
5.510;-0.274970;-0.364982
5.520;-0.300740;-0.374916
5.530;-0.327123;-0.382912
5.540;-0.352567;-0.388316
5.550;-0.375719;-0.391039
5.560;-0.395558;-0.391557
5.570;-0.411411;-0.390699
5.580;-0.422873;-0.389346
5.590;-0.429727;-0.388143
5.600;-0.431913;-0.387328
5.610;-0.429565;-0.386686
5.620;-0.423056;-0.385646
5.630;-0.412984;-0.383472
5.640;-0.400069;-0.379492
5.650;-0.385016;-0.373291
5.660;-0.368438;-0.364827
5.670;-0.350851;-0.354456
5.680;-0.332689;-0.342848
5.690;-0.314288;-0.330837
5.700;-0.295851;-0.319233
5.710;-0.277440;-0.308659
5.720;-0.259085;-0.299451
5.730;-0.240932;-0.291655
5.740;-0.223373;-0.285096
5.750;-0.207036;-0.279452
5.760;-0.192638;-0.274308
5.770;-0.180756;-0.269192
5.780;-0.171650;-0.263609
5.790;-0.165220;-0.257126
5.800;-0.161121;-0.249483
5.810;-0.158950;-0.240700
5.820;-0.158406;-0.231120
5.830;-0.159346;-0.221350
5.840;-0.161710;-0.212115
5.850;-0.165397;-0.204080
5.860;-0.170175;-0.197696
5.870;-0.175694;-0.193106
5.880;-0.181567;-0.190124
5.890;-0.187447;-0.188302
5.900;-0.193028;-0.187076
5.910;-0.197999;-0.185972
5.920;-0.202035;-0.184794
5.930;-0.204873;-0.183719
5.940;-0.206426;-0.183248
5.950;-0.206849;-0.184011
5.960;-0.206480;-0.186504
5.970;-0.205706;-0.190860
5.980;-0.204825;-0.196738
5.990;-0.203986;-0.203382
6.000;-0.203196;-0.209831
6.010;-0.202390;-0.215220
6.020;-0.201527;-0.219064
6.030;-0.200698;-0.221406
6.040;-0.200199;-0.222785
6.050;-0.200520;-0.224037
6.060;-0.202233;-0.226020
6.070;-0.205818;-0.229370
6.080;-0.211523;-0.234341
6.090;-0.219291;-0.240773
6.100;-0.228772;-0.248189
6.110;-0.239407;-0.255964
6.120;-0.250583;-0.263537
6.130;-0.261814;-0.270573
6.140;-0.272900;-0.277045
6.150;-0.283975;-0.283208
6.160;-0.295432;-0.289480
6.170;-0.307752;-0.296269
6.180;-0.321336;-0.303818
6.190;-0.336376;-0.312118
6.200;-0.352796;-0.320925
6.210;-0.370247;-0.329876
6.220;-0.388160;-0.338623
6.230;-0.405864;-0.346956
6.240;-0.422736;-0.354843
6.250;-0.438347;-0.362398
6.260;-0.452542;-0.369773
6.270;-0.465414;-0.377029
6.280;-0.477184;-0.384067
6.290;-0.488071;-0.390646
6.300;-0.498190;-0.396472
6.310;-0.507520;-0.401315
6.320;-0.515935;-0.405096
6.330;-0.523293;-0.407902
6.340;-0.529524;-0.409943
6.350;-0.534685;-0.411443
6.360;-0.538950;-0.412550
6.370;-0.542547;-0.413268
6.380;-0.545671;-0.413481
6.390;-0.548410;-0.413035
6.400;-0.550714;-0.411822
6.410;-0.552426;-0.409820
6.420;-0.553361;-0.407052
6.430;-0.553411;-0.403520
6.440;-0.552631;-0.399171
6.450;-0.551275;-0.393923
6.460;-0.549748;-0.387772
6.470;-0.548501;-0.380912
6.480;-0.547901;-0.373791
6.490;-0.548166;-0.367000
6.500;-0.549396;-0.361031
6.510;-0.551680;-0.356018
6.520;-0.555186;-0.351604
6.530;-0.560162;-0.347022
6.540;-0.566839;-0.341378
6.550;-0.575297;-0.333990
6.560;-0.585359;-0.324661
6.570;-0.596576;-0.313752
6.580;-0.608305;-0.302053
6.590;-0.619860;-0.290493
6.600;-0.630664;-0.279819
6.610;-0.640349;-0.270379
6.620;-0.648762;-0.262084
6.630;-0.655878;-0.254523
6.640;-0.661669;-0.247170
6.650;-0.666002;-0.239602
6.660;-0.668638;-0.231654
6.670;-0.669345;-0.223484
6.680;-0.668038;-0.215532
6.690;-0.664880;-0.208414
6.700;-0.660250;-0.202777
6.710;-0.654599;-0.199144
6.720;-0.648289;-0.197788
6.730;-0.641502;-0.198644
6.740;-0.634300;-0.201318
6.750;-0.626770;-0.205196
6.760;-0.619140;-0.209633
6.770;-0.611767;-0.214136
6.780;-0.604996;-0.218456
6.790;-0.599001;-0.222583
6.800;-0.593714;-0.226652
6.810;-0.588867;-0.230832
6.820;-0.584095;-0.235232
6.830;-0.579039;-0.239848
6.840;-0.573427;-0.244555
6.850;-0.567129;-0.249144
6.860;-0.560206;-0.253402
6.870;-0.552918;-0.257208
6.880;-0.545673;-0.260588
6.890;-0.538946;-0.263708
6.900;-0.533181;-0.266757
6.910;-0.528737;-0.269800
6.920;-0.525860;-0.272660
6.930;-0.524683;-0.274937
6.940;-0.525240;-0.276189
6.950;-0.527468;-0.276185
6.960;-0.531211;-0.275089
6.970;-0.536230;-0.273465
6.980;-0.542252;-0.272065
6.990;-0.549053;-0.271520
7.000;-0.556541;-0.272042
7.010;-0.564765;-0.273299
7.020;-0.573834;-0.274506
7.030;-0.583752;-0.274714
7.040;-0.594298;-0.273180
7.050;-0.605025;-0.269662
7.060;-0.615402;-0.264517
7.070;-0.625014;-0.258550
7.080;-0.633712;-0.252696
7.090;-0.641604;-0.247676
7.100;-0.648928;-0.243798
7.110;-0.655878;-0.240974
7.120;-0.662468;-0.238902
7.130;-0.668491;-0.237296
7.140;-0.673588;-0.236040
7.150;-0.677408;-0.235223
7.160;-0.679804;-0.235044
7.170;-0.680989;-0.235645
7.180;-0.681550;-0.236960
7.190;-0.682295;-0.238664
7.200;-0.684004;-0.240260
7.210;-0.687188;-0.241286
7.220;-0.691945;-0.241531
7.230;-0.697930;-0.241131
7.240;-0.704464;-0.240479
7.250;-0.710736;-0.240019
7.260;-0.716063;-0.240058
7.270;-0.720112;-0.240715
7.280;-0.723013;-0.242017
7.290;-0.725338;-0.244038
7.300;-0.727933;-0.246972
7.310;-0.731703;-0.251112
7.320;-0.737382;-0.256750
7.330;-0.745399;-0.264091
7.340;-0.755841;-0.273207
7.350;-0.768519;-0.284047
7.360;-0.783101;-0.296461
7.370;-0.799219;-0.310234
7.380;-0.816515;-0.325104
7.390;-0.834604;-0.340776
7.400;-0.853018;-0.356932
7.410;-0.871187;-0.373214
7.420;-0.888493;-0.389210
7.430;-0.904375;-0.404439
7.440;-0.918431;-0.418387
7.450;-0.930451;-0.430575
7.460;-0.940378;-0.440621
7.470;-0.948216;-0.448293
7.480;-0.953940;-0.453534
7.490;-0.957452;-0.456446
7.500;-0.958598;-0.457270
7.510;-0.957224;-0.456334
7.520;-0.953256;-0.454025
7.530;-0.946763;-0.450765
7.540;-0.937985;-0.447003
7.550;-0.927344;-0.443186
7.560;-0.915428;-0.439679
7.570;-0.902966;-0.436673
7.580;-0.890741;-0.434140
7.590;-0.879486;-0.431871
7.600;-0.869777;-0.429599
7.610;-0.861989;-0.427152
7.620;-0.856317;-0.424570
7.630;-0.852838;-0.422123
7.640;-0.851571;-0.420203
7.650;-0.852487;-0.419129
7.660;-0.855478;-0.418963
7.670;-0.860334;-0.419427
7.680;-0.866741;-0.419996
7.690;-0.874318;-0.420133
7.700;-0.882703;-0.419556
7.710;-0.891629;-0.418395
7.720;-0.900975;-0.417147
7.730;-0.910736;-0.416437
7.740;-0.920923;-0.416713
7.750;-0.931431;-0.418002
7.760;-0.941926;-0.419871
7.770;-0.951826;-0.421589
7.780;-0.960375;-0.422420
7.790;-0.966826;-0.421895
7.800;-0.970648;-0.419962
