Time[s];COPx[cm];COPy[cm]
0.010;-4.495922;-0.003599
0.020;-4.490754;-0.005599
0.030;-4.485403;-0.007114
0.040;-4.479626;-0.007912
0.050;-4.473198;-0.008091
0.060;-4.465947;-0.008036
0.070;-4.457823;-0.008247
0.080;-4.448984;-0.009108
0.090;-4.439851;-0.010686
0.100;-4.431093;-0.012647
0.110;-4.423518;-0.014332
0.120;-4.417891;-0.014979
0.130;-4.414749;-0.014017
0.140;-4.414284;-0.011343
0.150;-4.416323;-0.007466
0.160;-4.420377;-0.003422
0.170;-4.425763;-0.000453
0.180;-4.431781;0.000448
0.190;-4.437919;-0.001062
0.200;-4.443986;-0.004524
0.210;-4.450122;-0.008836
0.220;-4.456667;-0.012659
0.230;-4.463945;-0.014884
0.240;-4.472095;-0.014984
0.250;-4.481009;-0.013119
0.260;-4.490374;-0.009998
0.270;-4.499772;-0.006565
0.280;-4.508755;-0.003677
0.290;-4.516898;-0.001879
0.300;-4.523837;-0.001369
0.310;-4.529334;-0.002117
0.320;-4.533366;-0.004056
0.330;-4.536171;-0.007227
0.340;-4.538210;-0.011791
0.350;-4.540042;-0.017911
0.360;-4.542193;-0.025583
0.370;-4.545049;-0.034537
0.380;-4.548804;-0.044285
0.390;-4.553445;-0.054294
0.400;-4.558797;-0.064163
0.410;-4.564612;-0.073699
0.420;-4.570694;-0.082888
0.430;-4.576970;-0.091801
0.440;-4.583487;-0.100529
0.450;-4.590329;-0.109171
0.460;-4.597547;-0.117855
0.470;-4.605146;-0.126748
0.480;-4.613128;-0.136025
0.490;-4.621571;-0.145807
0.500;-4.630672;-0.156116
0.510;-4.640746;-0.166907
0.520;-4.652147;-0.178189
0.530;-4.665156;-0.190178
0.540;-4.679872;-0.203374
0.550;-4.696157;-0.218463
0.560;-4.713665;-0.236090
0.570;-4.731920;-0.256567
0.580;-4.750444;-0.279667
0.590;-4.768867;-0.304598
0.600;-4.787004;-0.330195
0.610;-4.804855;-0.355230
0.620;-4.822522;-0.378696
0.630;-4.840071;-0.399943
0.640;-4.857418;-0.418651
0.650;-4.874285;-0.434705
0.660;-4.890238;-0.448058
0.670;-4.904781;-0.458642
0.680;-4.917470;-0.466368
0.690;-4.928007;-0.471200
0.700;-4.936305;-0.473275
0.710;-4.942472;-0.472982
0.720;-4.946719;-0.470954
0.730;-4.949192;-0.467943
0.740;-4.949793;-0.464615
0.750;-4.948098;-0.461332
0.760;-4.943435;-0.458010
0.770;-4.935099;-0.454109
0.780;-4.922613;-0.448777
0.790;-4.905880;-0.441101
0.800;-4.885131;-0.430367
0.810;-4.860728;-0.416231
0.820;-4.832930;-0.398773
0.830;-4.801813;-0.378412
0.840;-4.767366;-0.355727
0.850;-4.729722;-0.331278
0.860;-4.689352;-0.305487
0.870;-4.647113;-0.278629
0.880;-4.604104;-0.250892
0.890;-4.561387;-0.222451
0.900;-4.519705;-0.193471
0.910;-4.479295;-0.164078
0.920;-4.439907;-0.134331
0.930;-4.401002;-0.104259
0.940;-4.362066;-0.073963
0.950;-4.322858;-0.043722
0.960;-4.283507;-0.014035
0.970;-4.244428;0.014452
0.980;-4.206176;0.041095
0.990;-4.169285;0.065405
1.000;-4.134188;0.087137
1.010;-4.101186;0.106270
1.020;-4.070476;0.122912
1.030;-4.042185;0.137182
1.040;-4.016413;0.149099
1.050;-3.993246;0.158519
1.060;-3.972770;0.165128
1.070;-3.955079;0.168532
1.080;-3.940275;0.168436
1.090;-3.928471;0.164896
1.100;-3.919774;0.158497
1.110;-3.914248;0.150384
1.120;-3.911841;0.142049
1.130;-3.912294;0.134969
1.140;-3.915084;0.130230
1.150;-3.919460;0.128346
1.160;-3.924583;0.129305
1.170;-3.929719;0.132772
1.180;-3.934421;0.138281
1.190;-3.938605;0.145350
1.200;-3.942497;0.153488
1.210;-3.946487;0.162159
1.220;-3.950939;0.170753
1.230;-3.956075;0.178617
1.240;-3.961953;0.185126
1.250;-3.968536;0.189790
1.260;-3.975769;0.192351
1.270;-3.983617;0.192875
1.280;-3.992002;0.191796
1.290;-4.000692;0.189895
1.300;-4.009230;0.188171
1.310;-4.016974;0.187621
1.320;-4.023267;0.189001
1.330;-4.027685;0.192664
1.340;-4.030235;0.198535
1.350;-4.031407;0.206214
1.360;-4.032030;0.215137
1.370;-4.032987;0.224716
1.380;-4.034943;0.234398
1.390;-4.038173;0.243690
1.400;-4.042536;0.252162
1.410;-4.047569;0.259452
1.420;-4.052622;0.265281
1.430;-4.057002;0.269482
1.440;-4.060101;0.272016
1.450;-4.061516;0.272981
1.460;-4.061126;0.272606
1.470;-4.059127;0.271234
1.480;-4.055992;0.269284
1.490;-4.052354;0.267190
1.500;-4.048850;0.265306
1.510;-4.045958;0.263822
1.520;-4.043893;0.262696
1.530;-4.042583;0.261655
1.540;-4.041732;0.260271
1.550;-4.040938;0.258111
1.560;-4.039823;0.254944
1.570;-4.038163;0.250902
1.580;-4.035966;0.246525
1.590;-4.033500;0.242654
1.600;-4.031226;0.240195
1.610;-4.029652;0.239862
1.620;-4.029137;0.241985
1.630;-4.029727;0.246435
1.640;-4.031147;0.252656
1.650;-4.032932;0.259817
1.660;-4.034638;0.267054
1.670;-4.036025;0.273743
1.680;-4.037126;0.279691
1.690;-4.038206;0.285138
1.700;-4.039645;0.290585
1.710;-4.041783;0.296512
1.720;-4.044796;0.303148
1.730;-4.048657;0.310364
1.740;-4.053180;0.317735
1.750;-4.058142;0.324710
1.760;-4.063383;0.330806
1.770;-4.068843;0.335800
1.780;-4.074524;0.339851
1.790;-4.080426;0.343537
1.800;-4.086531;0.347738
1.810;-4.092862;0.353391
1.820;-4.099572;0.361172
1.830;-4.106976;0.371247
1.840;-4.115468;0.383222
1.850;-4.125348;0.396303
1.860;-4.136637;0.409615
1.870;-4.148985;0.422494
1.880;-4.161682;0.434642
1.890;-4.173787;0.446102
1.900;-4.184279;0.457118
1.910;-4.192235;0.467983
1.920;-4.196965;0.478954
1.930;-4.198098;0.490253
1.940;-4.195619;0.502100
1.950;-4.189829;0.514710
1.960;-4.181247;0.528230
1.970;-4.170454;0.542668
1.980;-4.157923;0.557838
1.990;-4.143909;0.573376
2.000;-4.128467;0.588810
2.010;-4.111599;0.603680
2.020;-4.093421;0.617646
2.030;-4.074269;0.630565
2.040;-4.054699;0.642508
2.050;-4.035391;0.653735
2.060;-4.017014;0.664619
2.070;-4.000080;0.675511
2.080;-3.984843;0.686601
2.090;-3.971253;0.697794
2.100;-3.959019;0.708669
2.110;-3.947735;0.718543
2.120;-3.937059;0.726636
2.130;-3.926839;0.732318
2.140;-3.917142;0.735315
2.150;-3.908157;0.735794
2.160;-3.900039;0.734263
2.170;-3.892776;0.731364
2.180;-3.886148;0.727667
2.190;-3.879827;0.723579
2.200;-3.873549;0.719370
2.210;-3.867297;0.715264
2.220;-3.861363;0.711501
2.230;-3.856250;0.708322
2.240;-3.852454;0.705881
2.250;-3.850242;0.704152
2.260;-3.849544;0.702897
2.270;-3.850011;0.701738
2.280;-3.851187;0.700274
2.290;-3.852703;0.698168
2.300;-3.854409;0.695192
2.310;-3.856404;0.691250
2.320;-3.858973;0.686439
2.330;-3.862436;0.681128
2.340;-3.866996;0.675985
2.350;-3.872636;0.671852
2.360;-3.879135;0.669460
2.370;-3.886162;0.669077
2.380;-3.893407;0.670306
2.390;-3.900696;0.672171
2.400;-3.908081;0.673498
2.410;-3.915844;0.673387
2.420;-3.924435;0.671549
2.430;-3.934319;0.668364
2.440;-3.945799;0.664647
2.450;-3.958846;0.661276
2.460;-3.973022;0.658855
2.470;-3.987514;0.657519
2.480;-4.001290;0.656923
2.490;-4.013326;0.656387
2.500;-4.022846;0.655148
2.510;-4.029494;0.652645
2.520;-4.033387;0.648752
2.530;-4.035016;0.643864
2.540;-4.035038;0.638802
2.550;-4.034047;0.634569
2.560;-4.032433;0.632047
2.570;-4.030379;0.631719
2.580;-4.027974;0.633515
2.590;-4.025348;0.636857
2.600;-4.022773;0.640896
2.610;-4.020642;0.644836
2.620;-4.019361;0.648176
2.630;-4.019157;0.650786
2.640;-4.019912;0.652809
2.650;-4.021087;0.654502
2.660;-4.021824;0.656106
2.670;-4.021176;0.657779
2.680;-4.018392;0.659612
2.690;-4.013141;0.661652
2.700;-4.005600;0.663912
2.710;-3.996400;0.666358
2.720;-3.986452;0.668880
2.730;-3.976726;0.671296
2.740;-3.968055;0.673407
2.750;-3.961015;0.675068
2.760;-3.955883;0.676275
2.770;-3.952649;0.677194
2.780;-3.951081;0.678117
2.790;-3.950810;0.679342
2.800;-3.951455;0.681044
2.810;-3.952725;0.683200
2.820;-3.954487;0.685591
2.830;-3.956764;0.687878
2.840;-3.959663;0.689682
2.850;-3.963258;0.690690
2.860;-3.967479;0.690741
2.870;-3.972079;0.689903
2.880;-3.976686;0.688485
2.890;-3.980927;0.686963
2.900;-3.984580;0.685837
2.910;-3.987676;0.685478
2.920;-3.990525;0.685998
2.930;-3.993601;0.687189
2.940;-3.997329;0.688535
2.950;-4.001870;0.689326
2.960;-4.007034;0.688838
2.970;-4.012400;0.686557
2.980;-4.017548;0.682353
2.990;-4.022270;0.676535
3.000;-4.026606;0.669754
3.010;-4.030737;0.662769
3.020;-4.034830;0.656184
3.030;-4.038932;0.650237
3.040;-4.042966;0.644739
3.050;-4.046810;0.639167
3.060;-4.050406;0.632905
3.070;-4.053831;0.625534
3.080;-4.057282;0.617056
3.090;-4.060998;0.607963
3.100;-4.065147;0.599107
3.110;-4.069764;0.591411
3.120;-4.074742;0.585506
3.130;-4.079863;0.581448
3.140;-4.084818;0.578659
3.150;-4.089216;0.576147
3.160;-4.092580;0.572905
3.170;-4.094393;0.568310
3.180;-4.094203;0.562323
3.190;-4.091776;0.555404
3.200;-4.087221;0.548213
3.210;-4.081024;0.541228
3.220;-4.073936;0.534505
3.230;-4.066754;0.527654
3.240;-4.060071;0.520043
3.250;-4.054103;0.511102
3.260;-4.048640;0.500565
3.270;-4.043142;0.488538
3.280;-4.036947;0.475388
3.290;-4.029529;0.461542
3.300;-4.020705;0.447322
3.310;-4.010711;0.432879
3.320;-4.000092;0.418213
3.330;-3.989457;0.403257
3.340;-3.979232;0.387978
3.350;-3.969531;0.372486
3.360;-3.960221;0.357069
3.370;-3.951123;0.342115
3.380;-3.942240;0.327936
3.390;-3.933879;0.314572
3.400;-3.926591;0.301739
3.410;-3.920988;0.288966
3.420;-3.917508;0.275864
3.430;-3.916264;0.262376
3.440;-3.917013;0.248821
3.450;-3.919226;0.235726
3.460;-3.922216;0.223551
3.470;-3.925250;0.212468
3.480;-3.927644;0.202306
3.490;-3.928819;0.192664
3.500;-3.928379;0.183103
3.510;-3.926183;0.173307
3.520;-3.922418;0.163171
3.530;-3.917624;0.152802
3.540;-3.912601;0.142496
3.550;-3.908228;0.132685
3.560;-3.905228;0.123858
3.570;-3.903983;0.116440
3.580;-3.904471;0.110682
3.590;-3.906349;0.106597
3.600;-3.909129;0.103973
3.610;-3.912362;0.102452
3.620;-3.915747;0.101649
3.630;-3.919137;0.101257
3.640;-3.922472;0.101101
3.650;-3.925697;0.101110
3.660;-3.928692;0.101245
3.670;-3.931274;0.101411
3.680;-3.933249;0.101443
3.690;-3.934502;0.101153
3.700;-3.935100;0.100431
3.710;-3.935333;0.099338
3.720;-3.935680;0.098144
3.730;-3.936704;0.097297
3.740;-3.938920;0.097301
3.750;-3.942671;0.098580
3.760;-3.948049;0.101369
3.770;-3.954850;0.105695
3.780;-3.962579;0.111438
3.790;-3.970516;0.118432
3.800;-3.977839;0.126558
3.810;-3.983791;0.135804
3.820;-3.987863;0.146277
3.830;-3.989939;0.158185
3.840;-3.990335;0.171760
3.850;-3.989707;0.187145
3.860;-3.988843;0.204259
3.870;-3.988433;0.222697
3.880;-3.988903;0.241730
3.890;-3.990354;0.260437
3.900;-3.992576;0.277929
3.910;-3.995141;0.293581
3.920;-3.997520;0.307160
3.930;-3.999218;0.318818
3.940;-3.999895;0.328962
3.950;-3.999434;0.338102
3.960;-3.997949;0.346699
3.970;-3.995721;0.355073
3.980;-3.993086;0.363343
3.990;-3.990310;0.371414
4.000;-3.987516;0.379022
4.010;-3.984693;0.385815
4.020;-3.981773;0.391456
4.030;-3.978725;0.395709
4.040;-3.975570;0.398492
4.050;-3.972328;0.399891
4.060;-3.968924;0.400141
4.070;-3.965166;0.399545
4.080;-3.960816;0.398396
4.090;-3.955728;0.396911
4.100;-3.949965;0.395243
4.110;-3.943824;0.393531
4.120;-3.937755;0.391950
4.130;-3.932216;0.390719
4.140;-3.927532;0.390035
4.150;-3.923793;0.389996
4.160;-3.920853;0.390565
4.170;-3.918400;0.391611
4.180;-3.916078;0.393011
4.190;-3.913613;0.394735
4.200;-3.910897;0.396874
4.210;-3.907979;0.399590
4.220;-3.904970;0.403045
4.230;-3.901912;0.407355
4.240;-3.898693;0.412589
4.250;-3.895072;0.418782
4.260;-3.890777;0.425912
4.270;-3.885637;0.433846
4.280;-3.879671;0.442280
4.290;-3.873104;0.450726
4.300;-3.866297;0.458569
4.310;-3.859643;0.465209
4.320;-3.853467;0.470247
4.330;-3.847986;0.473662
4.340;-3.843328;0.475884
4.350;-3.839571;0.477721
4.360;-3.836760;0.480128
4.370;-3.834869;0.483871
4.380;-3.833768;0.489248
4.390;-3.833212;0.495971
4.400;-3.832902;0.503300
4.410;-3.832558;0.510346
4.420;-3.831999;0.516410
4.430;-3.831186;0.521205
4.440;-3.830255;0.524894
4.450;-3.829484;0.527964
4.460;-3.829207;0.530981
4.470;-3.829656;0.534357
4.480;-3.830797;0.538180
4.490;-3.832250;0.542189
4.500;-3.833344;0.545842
4.510;-3.833308;0.548510
4.520;-3.831527;0.549710
4.530;-3.827729;0.549338
4.540;-3.822061;0.547775
4.550;-3.815041;0.545793
4.560;-3.807424;0.544300
4.570;-3.800032;0.544034
4.580;-3.793563;0.545338
4.590;-3.788426;0.548107
4.600;-3.784639;0.551900
4.610;-3.781867;0.556146
4.620;-3.779568;0.560368
4.630;-3.777202;0.564340
4.640;-3.774399;0.568122
4.650;-3.771031;0.571965
4.660;-3.767185;0.576134
4.670;-3.763080;0.580753
4.680;-3.758963;0.585733
4.690;-3.755022;0.590807
4.700;-3.751348;0.595654
4.710;-3.747943;0.600026
4.720;-3.744781;0.603848
4.730;-3.741887;0.607230
4.740;-3.739372;0.610385
4.750;-3.737390;0.613529
4.760;-3.736026;0.616822
4.770;-3.735158;0.620416
4.780;-3.734427;0.624519
4.790;-3.733336;0.629411
4.800;-3.731454;0.635360
4.810;-3.728588;0.642496
4.820;-3.724844;0.650720
4.830;-3.720543;0.659715
4.840;-3.716064;0.669046
4.850;-3.711695;0.678272
4.860;-3.707550;0.687011
4.870;-3.703574;0.694962
4.880;-3.699611;0.701922
4.890;-3.695492;0.707837
4.900;-3.691099;0.712866
4.910;-3.686379;0.717417
4.920;-3.681338;0.722087
4.930;-3.676020;0.727499
4.940;-3.670537;0.734084
4.950;-3.665117;0.741911
4.960;-3.660150;0.750643
4.970;-3.656175;0.759630
4.980;-3.653770;0.768077
4.990;-3.653354;0.775212
5.000;-3.655001;0.780425
5.010;-3.658353;0.783378
5.020;-3.662712;0.784072
5.030;-3.667238;0.782869
5.040;-3.671183;0.780453
5.050;-3.674041;0.777717
5.060;-3.675598;0.775568
5.070;-3.675875;0.774676
5.080;-3.675037;0.775235
5.090;-3.673303;0.776849
5.100;-3.670906;0.778604
5.110;-3.668104;0.779344
5.120;-3.665191;0.778031
5.130;-3.662469;0.774059
5.140;-3.660154;0.767394
5.150;-3.658256;0.758521
5.160;-3.656503;0.748268
5.170;-3.654377;0.737578
5.180;-3.651250;0.727320
5.190;-3.646592;0.718187
5.200;-3.640166;0.710644
5.210;-3.632149;0.704917
5.220;-3.623138;0.700957
5.230;-3.614020;0.698421
5.240;-3.605748;0.696711
5.250;-3.599065;0.695089
5.260;-3.594284;0.692845
5.270;-3.591189;0.689466
5.280;-3.589091;0.684757
5.290;-3.587010;0.678869
5.300;-3.583898;0.672259
5.310;-3.578873;0.665564
5.320;-3.571402;0.659425
5.330;-3.561417;0.654302
5.340;-3.549293;0.650347
5.350;-3.535720;0.647375
5.360;-3.521503;0.644944
5.370;-3.507367;0.642526
5.380;-3.493830;0.639684
5.390;-3.481161;0.636227
5.400;-3.469405;0.632291
5.410;-3.458449;0.628308
5.420;-3.448100;0.624854
5.430;-3.438160;0.622432
5.440;-3.428485;0.621242
5.450;-3.419026;0.621066
5.460;-3.409858;0.621323
5.470;-3.401158;0.621302
5.480;-3.393130;0.620474
5.490;-3.385862;0.618719
5.500;-3.379193;0.616354
5.510;-3.372701;0.613984
5.520;-3.365863;0.612283
5.530;-3.358315;0.611805
5.540;-3.350066;0.612890
5.550;-3.341547;0.615642
5.560;-3.333453;0.619944
5.570;-3.326501;0.625512
5.580;-3.321215;0.631942
5.590;-3.317824;0.638752
5.600;-3.316257;0.645434
5.610;-3.316215;0.651521
5.620;-3.317272;0.656671
5.630;-3.318976;0.660710
5.640;-3.320941;0.663641
5.650;-3.322889;0.665599
5.660;-3.324646;0.666811
5.670;-3.326068;0.667547
5.680;-3.326968;0.668052
5.690;-3.327102;0.668461
5.700;-3.326264;0.668732
5.710;-3.324461;0.668659
5.720;-3.322068;0.667960
5.730;-3.319852;0.666393
5.740;-3.318827;0.663827
5.750;-3.319981;0.660269
5.760;-3.323985;0.655850
5.770;-3.330997;0.650794
5.780;-3.340637;0.645342
5.790;-3.352134;0.639659
5.800;-3.364575;0.633742
5.810;-3.377139;0.627430
5.820;-3.389235;0.620508
5.830;-3.400518;0.612877
5.840;-3.410835;0.604638
5.850;-3.420137;0.596060
5.860;-3.428412;0.587446
5.870;-3.435668;0.578981
5.880;-3.441973;0.570653
5.890;-3.447541;0.562269
5.900;-3.452767;0.553540
5.910;-3.458181;0.544198
5.920;-3.464315;0.534104
5.930;-3.471516;0.523329
5.940;-3.479815;0.512154
5.950;-3.488916;0.501010
5.960;-3.498307;0.490341
5.970;-3.507439;0.480459
5.980;-3.515895;0.471453
5.990;-3.523468;0.463204
6.000;-3.530141;0.455484
6.010;-3.536002;0.448085
6.020;-3.541178;0.440902
6.030;-3.545830;0.433946
6.040;-3.550200;0.427292
6.050;-3.554626;0.420988
6.060;-3.559469;0.414984
6.070;-3.564985;0.409125
6.080;-3.571222;0.403211
6.090;-3.578009;0.397100
6.100;-3.585019;0.390793
6.110;-3.591878;0.384461
6.120;-3.598274;0.378403
6.130;-3.604030;0.372939
6.140;-3.609124;0.368294
6.150;-3.613645;0.364510
6.160;-3.617723;0.361448
6.170;-3.621476;0.358884
6.180;-3.624998;0.356650
6.190;-3.628367;0.354732
6.200;-3.631658;0.353268
6.210;-3.634944;0.352482
6.220;-3.638298;0.352611
6.230;-3.641772;0.353885
6.240;-3.645370;0.356537
6.250;-3.648990;0.360816
6.260;-3.652385;0.366977
6.270;-3.655208;0.375231
6.280;-3.657143;0.385666
6.290;-3.658065;0.398137
6.300;-3.658126;0.412189
6.310;-3.657687;0.427067
6.320;-3.657133;0.441823
6.330;-3.656690;0.455517
6.340;-3.656339;0.467436
6.350;-3.655879;0.477253
6.360;-3.655068;0.485080
6.370;-3.653768;0.491395
6.380;-3.652006;0.496888
6.390;-3.649924;0.502262
6.400;-3.647669;0.508052
6.410;-3.645277;0.514494
6.420;-3.642617;0.521476
6.430;-3.639439;0.528601
6.440;-3.635494;0.535336
6.450;-3.630694;0.541215
6.460;-3.625202;0.546029
6.470;-3.619432;0.549934
6.480;-3.613932;0.553420
6.490;-3.609205;0.557146
6.500;-3.605545;0.561714
6.510;-3.602943;0.567495
6.520;-3.601117;0.574575
6.530;-3.599631;0.582798
6.540;-3.598060;0.591859
6.550;-3.596107;0.601409
6.560;-3.593638;0.611138
6.570;-3.590647;0.620821
6.580;-3.587220;0.630303
6.590;-3.583509;0.639443
6.600;-3.579731;0.648063
6.610;-3.576138;0.655955
6.620;-3.572956;0.662970
6.630;-3.570279;0.669142
6.640;-3.567975;0.674767
6.650;-3.565656;0.680384
6.660;-3.562763;0.686618
6.670;-3.558773;0.693958
6.680;-3.553436;0.702581
6.690;-3.546937;0.712295
6.700;-3.539891;0.722620
6.710;-3.533174;0.732956
6.720;-3.527632;0.742760
6.730;-3.523804;0.751674
6.740;-3.521765;0.759576
6.750;-3.521173;0.766539
6.760;-3.521482;0.772741
6.770;-3.522217;0.778358
6.780;-3.523173;0.783529
6.790;-3.524443;0.788376
6.800;-3.526294;0.793061
6.810;-3.528979;0.797792
6.820;-3.532582;0.802757
6.830;-3.536961;0.808041
6.840;-3.541792;0.813582
6.850;-3.546682;0.819195
6.860;-3.551316;0.824655
6.870;-3.555565;0.829789
6.880;-3.559503;0.834543
6.890;-3.563324;0.839007
6.900;-3.567211;0.843392
6.910;-3.571245;0.847974
6.920;-3.575370;0.853021
6.930;-3.579404;0.858730
6.940;-3.583089;0.865215
6.950;-3.586159;0.872551
6.960;-3.588440;0.880843
6.970;-3.589955;0.890278
6.980;-3.590983;0.901102
6.990;-3.592011;0.913575
7.000;-3.593577;0.927909
7.010;-3.596076;0.944227
7.020;-3.599624;0.962516
7.030;-3.604077;0.982611
7.040;-3.609185;1.004193
7.050;-3.614807;1.026871
7.060;-3.621101;1.050317
7.070;-3.628608;1.074424
7.080;-3.638193;1.099390
7.090;-3.650844;1.125654
7.100;-3.667372;1.153725
7.110;-3.688084;1.183993
7.120;-3.712540;1.216625
7.130;-3.739483;1.251573
7.140;-3.767002;1.288646
7.150;-3.792929;1.327583
7.160;-3.815358;1.368091
7.170;-3.833103;1.409850
7.180;-3.845924;1.452496
7.190;-3.854426;1.495591
7.200;-3.859700;1.538582
7.210;-3.862866;1.580762
7.220;-3.864692;1.621234
7.230;-3.865404;1.658929
7.240;-3.864734;1.692700
7.250;-3.862156;1.721515
7.260;-3.857205;1.744701
7.270;-3.849736;1.762159
7.280;-3.840040;1.774434
7.290;-3.828782;1.782607
7.300;-3.816835;1.788032
7.310;-3.805076;1.792002
7.320;-3.794210;1.795440
7.330;-3.784664;1.798695
7.340;-3.776541;1.801518
7.350;-3.769642;1.803223
7.360;-3.763553;1.802978
7.370;-3.757779;1.800084
7.380;-3.751896;1.794146
7.390;-3.745664;1.785106
7.400;-3.739076;1.773188
7.410;-3.732337;1.758823
7.420;-3.725794;1.742619
7.430;-3.719834;1.725354
7.440;-3.714762;1.707959
7.450;-3.710668;1.691416
7.460;-3.707349;1.676570
7.470;-3.704298;1.663933
7.480;-3.700832;1.653544
7.490;-3.696301;1.644969
7.500;-3.690310;1.637424
7.510;-3.682838;1.629965
7.520;-3.674182;1.621711
7.530;-3.664763;1.611994
7.540;-3.654921;1.600414
7.550;-3.644818;1.586766
7.560;-3.634471;1.570892
7.570;-3.623889;1.552568
7.580;-3.613189;1.531455
7.590;-3.602637;1.507163
7.600;-3.592559;1.479390
7.610;-3.583169;1.448077
7.620;-3.574401;1.413525
7.630;-3.565845;1.376415
7.640;-3.556861;1.337725
7.650;-3.546814;1.298550
7.660;-3.535332;1.259892
7.670;-3.522466;1.222519
7.680;-3.508680;1.186926
7.690;-3.494703;1.153409
7.700;-3.481295;1.122191
7.710;-3.469014;1.093513
7.720;-3.458055;1.067671
7.730;-3.448216;1.044957
7.740;-3.439010;1.025560
7.750;-3.429859;1.009436
7.760;-3.420293;0.996215
7.770;-3.410082;0.985174
7.780;-3.399286;0.975318
7.790;-3.388237;0.965527
7.800;-3.377458;0.954740
7.810;-3.367552;0.942129
7.820;-3.359096;0.927242
7.830;-3.352548;0.910076
7.840;-3.348203;0.891079
7.850;-3.346176;0.871048
7.860;-3.346418;0.850937
7.870;-3.348762;0.831624
7.880;-3.352946;0.813692
7.890;-3.358643;0.797296
7.900;-3.365451;0.782173
7.910;-3.372893;0.767795
7.920;-3.380413;0.753611
7.930;-3.387423;0.739267
7.940;-3.393401;0.724713
7.950;-3.398041;0.710187
