Time[s];COPx[cm];COPy[cm]
0.010;-0.334664;0.900114
0.020;-0.309894;0.901035
0.030;-0.285534;0.902301
0.040;-0.262147;0.904109
0.050;-0.240449;0.906448
0.060;-0.221236;0.909146
0.070;-0.205249;0.911993
0.080;-0.192998;0.914875
0.090;-0.184617;0.917829
0.100;-0.179800;0.921001
0.110;-0.177857;0.924544
0.120;-0.177860;0.928533
0.130;-0.178864;0.932951
0.140;-0.180132;0.937749
0.150;-0.181306;0.942887
0.160;-0.182481;0.948349
0.170;-0.184154;0.954118
0.180;-0.187052;0.960161
0.190;-0.191882;0.966441
0.200;-0.199076;0.972950
0.210;-0.208602;0.979750
0.220;-0.219912;0.986981
0.230;-0.232044;0.994781
0.240;-0.243830;1.003150
0.250;-0.254135;1.011842
0.260;-0.262050;1.020357
0.270;-0.266988;1.028076
0.280;-0.268666;1.034448
0.290;-0.267006;1.039176
0.300;-0.262060;1.042310
0.310;-0.254015;1.044239
0.320;-0.243297;1.045574
0.330;-0.230704;1.046977
0.340;-0.217454;1.048995
0.350;-0.205062;1.051981
0.360;-0.195016;1.056101
0.370;-0.188382;1.061411
0.380;-0.185470;1.067907
0.390;-0.185742;1.075516
0.400;-0.188000;1.084034
0.410;-0.190793;1.093106
0.420;-0.192857;1.102277
0.430;-0.193425;1.111106
0.440;-0.192298;1.119267
0.450;-0.189709;1.126584
0.460;-0.186092;1.132994
0.470;-0.181843;1.138484
0.480;-0.177168;1.143052
0.490;-0.172019;1.146716
0.500;-0.166135;1.149531
0.510;-0.159158;1.151586
0.520;-0.150774;1.152975
0.530;-0.140817;1.153779
0.540;-0.129300;1.154057
0.550;-0.116350;1.153860
0.560;-0.102104;1.153258
0.570;-0.086601;1.152364
0.580;-0.069741;1.151347
0.590;-0.051320;1.150408
0.600;-0.031152;1.149725
0.610;-0.009257;1.149392
0.620;0.013959;1.149381
0.630;0.037648;1.149536
0.640;0.060633;1.149595
0.650;0.081672;1.149235
0.660;0.099783;1.148118
0.670;0.114503;1.145950
0.680;0.126028;1.142513
0.690;0.135155;1.137703
0.700;0.143060;1.131568
0.710;0.150951;1.124340
0.720;0.159711;1.116431
0.730;0.169668;1.108351
0.740;0.180569;1.100583
0.750;0.191759;1.093469
0.760;0.202486;1.087177
0.770;0.212178;1.081745
0.780;0.220584;1.077140
0.790;0.227748;1.073257
0.800;0.233869;1.069879
0.810;0.239119;1.066674
0.820;0.243498;1.063271
0.830;0.246740;1.059374
0.840;0.248310;1.054821
0.850;0.247522;1.049564
0.860;0.243757;1.043613
0.870;0.236736;1.036996
0.880;0.226744;1.029799
0.890;0.214716;1.022227
0.900;0.202122;1.014639
0.910;0.190702;1.007489
0.920;0.182124;1.001192
0.930;0.177683;0.996007
0.940;0.178103;0.991984
0.950;0.183470;0.988975
0.960;0.193244;0.986675
0.970;0.206335;0.984664
0.980;0.221269;0.982454
0.990;0.236410;0.979572
1.000;0.250223;0.975654
1.010;0.261474;0.970523
1.020;0.269356;0.964252
1.030;0.273518;0.957186
1.040;0.274047;0.949917
1.050;0.271411;0.943176
1.060;0.266385;0.937639
1.070;0.259962;0.933694
1.080;0.253224;0.931284
1.090;0.247199;0.929911
1.100;0.242689;0.928815
1.110;0.240142;0.927268
1.120;0.239601;0.924821
1.130;0.240740;0.921399
1.140;0.242964;0.917222
1.150;0.245548;0.912637
1.160;0.247789;0.907972
1.170;0.249162;0.903442
1.180;0.249445;0.899092
1.190;0.248786;0.894768
1.200;0.247682;0.890135
1.210;0.246874;0.884801
1.220;0.247157;0.878509
1.230;0.249144;0.871294
1.240;0.253074;0.863523
1.250;0.258730;0.855796
1.260;0.265523;0.848777
1.270;0.272691;0.843046
1.280;0.279519;0.838980
1.290;0.285493;0.836688
1.300;0.290349;0.835981
1.310;0.294023;0.836384
1.320;0.296573;0.837212
1.330;0.298086;0.837712
1.340;0.298604;0.837233
1.350;0.298063;0.835411
1.360;0.296238;0.832267
1.370;0.292711;0.828196
1.380;0.286886;0.823819
1.390;0.278092;0.819781
1.400;0.265774;0.816527
1.410;0.249716;0.814156
1.420;0.230189;0.812376
1.430;0.207932;0.810603
1.440;0.183954;0.808170
1.450;0.159257;0.804557
1.460;0.134613;0.799547
1.470;0.110444;0.793234
1.480;0.086842;0.785910
1.490;0.063671;0.777928
1.500;0.040733;0.769601
1.510;0.017914;0.761149
1.520;-0.004732;0.752703
1.530;-0.027015;0.744353
1.540;-0.048724;0.736220
1.550;-0.069747;0.728508
1.560;-0.090124;0.721479
1.570;-0.110006;0.715359
1.580;-0.129540;0.710236
1.590;-0.148769;0.706015
1.600;-0.167573;0.702479
1.610;-0.185712;0.699397
1.620;-0.202927;0.696625
1.630;-0.219042;0.694139
1.640;-0.234020;0.691996
1.650;-0.247917;0.690251
1.660;-0.260803;0.688894
1.670;-0.272713;0.687853
1.680;-0.283667;0.687072
1.690;-0.293725;0.686620
1.700;-0.303031;0.686767
1.710;-0.311804;0.687939
1.720;-0.320307;0.690575
1.730;-0.328801;0.694939
1.740;-0.337487;0.701014
1.750;-0.346434;0.708495
1.760;-0.355503;0.716876
1.770;-0.364314;0.725573
1.780;-0.372305;0.734052
1.790;-0.378859;0.741940
1.800;-0.383459;0.749057
1.810;-0.385810;0.755384
1.820;-0.385862;0.760973
1.830;-0.383777;0.765888
1.840;-0.379853;0.770196
1.850;-0.374462;0.773993
1.860;-0.368007;0.777437
1.870;-0.360901;0.780750
1.880;-0.353557;0.784203
1.890;-0.346397;0.788100
1.900;-0.339846;0.792770
1.910;-0.334313;0.798558
1.920;-0.330142;0.805753
1.930;-0.327573;0.814468
1.940;-0.326726;0.824512
1.950;-0.327639;0.835350
1.960;-0.330296;0.846196
1.970;-0.334596;0.856251
1.980;-0.340258;0.865001
1.990;-0.346702;0.872455
2.000;-0.353007;0.879184
2.010;-0.358003;0.886125
2.020;-0.360530;0.894200
2.030;-0.359756;0.903909
2.040;-0.355443;0.915062
2.050;-0.348062;0.926795
2.060;-0.338710;0.937878
2.070;-0.328877;0.947179
2.080;-0.320137;0.954098
2.090;-0.313854;0.958771
2.100;-0.310969;0.961971
2.110;-0.311895;0.964773
2.120;-0.316524;0.968134
2.130;-0.324320;0.972581
2.140;-0.334451;0.978125
2.150;-0.345929;0.984400
2.160;-0.357731;0.990950
2.170;-0.368903;0.997507
2.180;-0.378658;1.004146
2.190;-0.386461;1.011253
2.200;-0.392126;1.019336
2.210;-0.395863;1.028758
2.220;-0.398245;1.039527
2.230;-0.400058;1.051224
2.240;-0.402041;1.063116
2.250;-0.404623;1.074381
2.260;-0.407727;1.084348
2.270;-0.410772;1.092658
2.280;-0.412851;1.099310
2.290;-0.413042;1.104592
2.300;-0.410712;1.108934
2.310;-0.405702;1.112724
2.320;-0.398356;1.116160
2.330;-0.389409;1.119218
2.340;-0.379784;1.121734
2.350;-0.370352;1.123554
2.360;-0.361725;1.124668
2.370;-0.354153;1.125286
2.380;-0.347566;1.125805
2.390;-0.341733;1.126688
2.400;-0.336447;1.128298
2.410;-0.331663;1.130762
2.420;-0.327506;1.133939
2.430;-0.324181;1.137485
2.440;-0.321807;1.140969
2.450;-0.320278;1.143983
2.460;-0.319212;1.146218
2.470;-0.318022;1.147497
2.480;-0.316069;1.147795
2.490;-0.312853;1.147256
2.500;-0.308141;1.146184
2.510;-0.301996;1.144979
2.520;-0.294701;1.144010
2.530;-0.286628;1.143506
2.540;-0.278141;1.143493
2.550;-0.269572;1.143794
2.560;-0.261258;1.144054
2.570;-0.253581;1.143812
2.580;-0.246973;1.142613
2.590;-0.241841;1.140164
2.600;-0.238461;1.136457
2.610;-0.236888;1.131797
2.620;-0.236950;1.126709
2.630;-0.238353;1.121794
2.640;-0.240820;1.117598
2.650;-0.244216;1.114522
2.660;-0.248575;1.112760
2.670;-0.254045;1.112253
2.680;-0.260797;1.112677
2.690;-0.268956;1.113507
2.700;-0.278590;1.114134
2.710;-0.289732;1.114019
2.720;-0.302402;1.112828
2.730;-0.316596;1.110541
2.740;-0.332271;1.107479
2.750;-0.349346;1.104248
2.760;-0.367721;1.101565
2.770;-0.387303;1.100007
2.780;-0.408016;1.099774
2.790;-0.429790;1.100588
2.800;-0.452533;1.101793
2.810;-0.476105;1.102598
2.820;-0.500303;1.102343
2.830;-0.524858;1.100675
2.840;-0.549427;1.097585
2.850;-0.573612;1.093337
2.860;-0.597010;1.088334
2.870;-0.619308;1.082965
2.880;-0.640358;1.077450
2.890;-0.660190;1.071785
2.900;-0.678951;1.065786
2.910;-0.696811;1.059246
2.920;-0.713897;1.052074
2.930;-0.730277;1.044346
2.940;-0.745971;1.036236
2.950;-0.760963;1.027929
2.960;-0.775172;1.019568
2.970;-0.788389;1.011321
2.980;-0.800229;1.003502
2.990;-0.810135;0.996632
3.000;-0.817442;0.991356
3.010;-0.821488;0.988202
3.020;-0.821725;0.987315
3.030;-0.817818;0.988308
3.040;-0.809741;0.990324
3.050;-0.797818;0.992288
3.060;-0.782714;0.993243
3.070;-0.765336;0.992643
3.080;-0.746691;0.990475
3.090;-0.727751;0.987189
3.100;-0.709340;0.983450
3.110;-0.692098;0.979854
3.120;-0.676480;0.976717
3.130;-0.662804;0.974055
3.140;-0.651286;0.971725
3.150;-0.642065;0.969630
3.160;-0.635191;0.967864
3.170;-0.630566;0.966708
3.180;-0.627852;0.966494
3.190;-0.626393;0.967427
3.200;-0.625221;0.969456
3.210;-0.623187;0.972290
3.220;-0.619211;0.975526
3.230;-0.612572;0.978835
3.240;-0.603143;0.982095
3.250;-0.591464;0.985405
3.260;-0.578628;0.988944
3.270;-0.566026;0.992776
3.280;-0.555061;0.996700
3.290;-0.546898;1.000244
3.300;-0.542313;1.002842
3.310;-0.541642;1.004076
3.320;-0.544815;1.003866
3.330;-0.551430;1.002496
3.340;-0.560806;1.000526
3.350;-0.572025;0.998657
3.360;-0.583998;0.997601
3.370;-0.595625;0.997954
3.380;-0.606032;1.000070
3.390;-0.614780;1.003990
3.400;-0.621970;1.009461
3.410;-0.628175;1.016034
3.420;-0.634232;1.023199
3.430;-0.640993;1.030500
3.440;-0.649106;1.037582
3.450;-0.658875;1.044200
3.460;-0.670232;1.050192
3.470;-0.682777;1.055472
3.480;-0.695932;1.060019
3.490;-0.709145;1.063871
3.500;-0.722119;1.067107
3.510;-0.734948;1.069821
3.520;-0.748109;1.072091
3.530;-0.762283;1.073971
3.540;-0.778059;1.075539
3.550;-0.795621;1.077005
3.560;-0.814537;1.078801
3.570;-0.833728;1.081564
3.580;-0.851665;1.085985
3.590;-0.866735;1.092556
3.600;-0.877656;1.101359
3.610;-0.883820;1.111985
3.620;-0.885418;1.123606
3.630;-0.883326;1.135156
3.640;-0.878783;1.145580
3.650;-0.873008;1.154058
3.660;-0.866907;1.160163
3.670;-0.860955;1.163910
3.680;-0.855261;1.165676
3.690;-0.849687;1.166059
3.700;-0.843941;1.165708
3.710;-0.837592;1.165199
3.720;-0.830058;1.164931
3.730;-0.820634;1.165062
3.740;-0.808594;1.165482
3.750;-0.793344;1.165863
3.760;-0.774566;1.165823
3.770;-0.752341;1.165127
3.780;-0.727222;1.163827
3.790;-0.700233;1.162268
3.800;-0.672765;1.160935
3.810;-0.646381;1.160227
3.820;-0.622575;1.160267
3.830;-0.602544;1.160825
3.840;-0.587012;1.161409
3.850;-0.576124;1.161434
3.860;-0.569421;1.160390
3.870;-0.565945;1.157938
3.880;-0.564457;1.153942
3.890;-0.563717;1.148481
3.900;-0.562755;1.141850
3.910;-0.561054;1.134521
3.920;-0.558620;1.127065
3.930;-0.555933;1.120002
3.940;-0.553805;1.113668
3.950;-0.553190;1.108143
3.960;-0.554965;1.103293
3.970;-0.559770;1.098905
3.980;-0.567915;1.094838
3.990;-0.579399;1.091115
4.000;-0.593997;1.087909
4.010;-0.611333;1.085437
4.020;-0.630903;1.083809
4.030;-0.652031;1.082913
4.040;-0.673826;1.082393
4.050;-0.695195;1.081755
4.060;-0.714928;1.080562
4.070;-0.731858;1.078605
4.080;-0.745051;1.075986
4.090;-0.753964;1.073027
4.100;-0.758541;1.070087
4.110;-0.759199;1.067389
4.120;-0.756719;1.064961
4.130;-0.752090;1.062713
4.140;-0.746352;1.060548
4.150;-0.740495;1.058427
4.160;-0.735388;1.056371
4.170;-0.731720;1.054419
4.180;-0.729938;1.052578
4.190;-0.730181;1.050816
4.200;-0.732242;1.049083
4.210;-0.735566;1.047372
4.220;-0.739285;1.045753
4.230;-0.742313;1.044367
4.240;-0.743524;1.043358
4.250;-0.741990;1.042791
4.260;-0.737200;1.042579
4.270;-0.729180;1.042432
4.280;-0.718477;1.041875
4.290;-0.706014;1.040322
4.300;-0.692875;1.037237
4.310;-0.680071;1.032325
4.320;-0.668354;1.025692
4.330;-0.658110;1.017877
4.340;-0.649355;1.009708
4.350;-0.641792;1.002030
4.360;-0.634921;0.995430
4.370;-0.628157;0.990079
4.380;-0.620972;0.985744
4.390;-0.612998;0.981935
4.400;-0.604069;0.978135
4.410;-0.594198;0.974024
4.420;-0.583537;0.969625
4.430;-0.572341;0.965304
4.440;-0.560963;0.961606
4.450;-0.549853;0.959024
4.460;-0.539511;0.957794
4.470;-0.530373;0.957818
4.480;-0.522649;0.958706
4.490;-0.516187;0.959909
4.500;-0.510454;0.960868
4.510;-0.504678;0.961137
4.520;-0.498104;0.960462
4.530;-0.490224;0.958799
4.540;-0.480859;0.956266
4.550;-0.470078;0.953049
4.560;-0.458053;0.949318
4.570;-0.444979;0.945210
4.580;-0.431105;0.940893
4.590;-0.416825;0.936621
4.600;-0.402716;0.932700
4.610;-0.389507;0.929356
4.620;-0.377957;0.926593
4.630;-0.368704;0.924162
4.640;-0.362098;0.921676
4.650;-0.358086;0.918795
4.660;-0.356178;0.915386
4.670;-0.355515;0.911571
4.680;-0.355040;0.907653
4.690;-0.353706;0.903955
4.700;-0.350682;0.900676
4.710;-0.345494;0.897816
4.720;-0.338080;0.895223
4.730;-0.328745;0.892718
4.740;-0.318044;0.890231
4.750;-0.306648;0.887855
4.760;-0.295247;0.885816
4.770;-0.284506;0.884389
4.780;-0.275052;0.883787
4.790;-0.267446;0.884095
4.800;-0.262127;0.885267
4.810;-0.259338;0.887168
4.820;-0.259090;0.889641
4.830;-0.261157;0.892542
4.840;-0.265113;0.895726
4.850;-0.270390;0.899027
4.860;-0.276358;0.902237
4.870;-0.282411;0.905124
4.880;-0.288064;0.907467
4.890;-0.293046;0.909096
4.900;-0.297356;0.909937
4.910;-0.301251;0.910046
4.920;-0.305157;0.909646
4.930;-0.309537;0.909111
4.940;-0.314772;0.908887
4.950;-0.321057;0.909362
4.960;-0.328343;0.910732
4.970;-0.336305;0.912948
4.980;-0.344370;0.915752
4.990;-0.351804;0.918782
5.000;-0.357840;0.921685
5.010;-0.361829;0.924196
5.020;-0.363375;0.926177
5.030;-0.362420;0.927629
5.040;-0.359243;0.928658
5.050;-0.354375;0.929408
5.060;-0.348444;0.929962
5.070;-0.342050;0.930263
5.080;-0.335710;0.930111
5.090;-0.329883;0.929256
5.100;-0.325035;0.927556
5.110;-0.321669;0.925094
5.120;-0.320285;0.922186
5.130;-0.321287;0.919271
5.140;-0.324873;0.916727
5.150;-0.330969;0.914720
5.160;-0.339224;0.913165
5.170;-0.349101;0.911816
5.180;-0.360017;0.910424
5.190;-0.371504;0.908855
5.200;-0.383321;0.907097
5.210;-0.395468;0.905201
5.220;-0.408085;0.903217
5.230;-0.421257;0.901184
5.240;-0.434814;0.899150
5.250;-0.448225;0.897209
5.260;-0.460646;0.895507
5.270;-0.471134;0.894224
5.280;-0.478955;0.893508
5.290;-0.483879;0.893420
5.300;-0.486312;0.893884
5.310;-0.487183;0.894697
5.320;-0.487604;0.895578
5.330;-0.488460;0.896268
5.340;-0.490079;0.896616
5.350;-0.492145;0.896636
5.360;-0.493835;0.896479
5.370;-0.494108;0.896329
5.380;-0.491987;0.896267
5.390;-0.486764;0.896174
5.400;-0.478063;0.895736
5.410;-0.465820;0.894564
5.420;-0.450213;0.892362
5.430;-0.431603;0.889079
5.440;-0.410505;0.884973
5.450;-0.387572;0.880557
5.460;-0.363576;0.876463
5.470;-0.339352;0.873260
5.480;-0.315750;0.871314
5.490;-0.293570;0.870734
5.500;-0.273484;0.871394
5.510;-0.255971;0.873005
5.520;-0.241269;0.875202
5.530;-0.229399;0.877613
5.540;-0.220254;0.879908
5.550;-0.213708;0.881804
5.560;-0.209659;0.883060
5.570;-0.207986;0.883486
5.580;-0.208436;0.883004
5.590;-0.210519;0.881721
5.600;-0.213497;0.879964
5.610;-0.216489;0.878224
5.620;-0.218658;0.877037
5.630;-0.219382;0.876862
5.640;-0.218362;0.878010
5.650;-0.215632;0.880615
5.660;-0.211522;0.884625
5.670;-0.206591;0.889819
5.680;-0.201547;0.895874
5.690;-0.197134;0.902461
5.700;-0.194024;0.909329
5.710;-0.192720;0.916333
5.720;-0.193497;0.923414
5.730;-0.196360;0.930553
5.740;-0.201016;0.937706
5.750;-0.206878;0.944738
5.760;-0.213116;0.951378
5.770;-0.218780;0.957232
5.780;-0.222974;0.961870
5.790;-0.225053;0.964958
5.800;-0.224793;0.966381
5.810;-0.222487;0.966294
5.820;-0.218890;0.965083
5.830;-0.215026;0.963252
5.840;-0.211904;0.961285
5.850;-0.210240;0.959535
5.860;-0.210273;0.958193
5.870;-0.211729;0.957311
5.880;-0.213910;0.956862
5.890;-0.215899;0.956767
5.900;-0.216801;0.956892
5.910;-0.215970;0.957069
5.920;-0.213173;0.957159
5.930;-0.208657;0.957134
5.940;-0.203088;0.957121
5.950;-0.197359;0.957357
5.960;-0.192312;0.958094
5.970;-0.188472;0.959503
5.980;-0.185921;0.961642
5.990;-0.184341;0.964491
6.000;-0.183208;0.968006
6.010;-0.182006;0.972147
6.020;-0.180386;0.976867
6.030;-0.178236;0.982069
6.040;-0.175666;0.987551
6.050;-0.172955;0.992954
6.060;-0.170462;0.997761
6.070;-0.168537;1.001384
6.080;-0.167398;1.003344
6.090;-0.167029;1.003479
6.100;-0.167139;1.002049
6.110;-0.167226;0.999702
6.120;-0.166757;0.997290
6.130;-0.165366;0.995631
6.140;-0.162971;0.995280
6.150;-0.159769;0.996369
6.160;-0.156114;0.998593
6.170;-0.152379;1.001345
6.180;-0.148868;1.003972
6.190;-0.145801;1.006043
6.200;-0.143332;1.007500
6.210;-0.141544;1.008622
6.220;-0.140421;1.009847
6.230;-0.139788;1.011561
6.240;-0.139296;1.013968
6.250;-0.138456;1.017059
6.260;-0.136755;1.020660
6.270;-0.133809;1.024521
6.280;-0.129504;1.028398
6.290;-0.124042;1.032111
6.300;-0.117884;1.035533
6.310;-0.111596;1.038533
6.320;-0.105674;1.040945
6.330;-0.100420;1.042612
6.340;-0.095901;1.043483
6.350;-0.091989;1.043703
6.360;-0.088466;1.043618
6.370;-0.085147;1.043658
6.380;-0.081976;1.044164
6.390;-0.079046;1.045239
6.400;-0.076551;1.046731
6.410;-0.074666;1.048326
6.420;-0.073415;1.049688
6.430;-0.072585;1.050568
6.440;-0.071758;1.050851
6.450;-0.070462;1.050535
6.460;-0.068394;1.049698
6.470;-0.065575;1.048473
6.480;-0.062360;1.047040
6.490;-0.059304;1.045600
6.500;-0.056997;1.044301
6.510;-0.055954;1.043144
6.520;-0.056614;1.041917
6.530;-0.059376;1.040232
6.540;-0.064595;1.037690
6.550;-0.072520;1.034074
6.560;-0.083181;1.029500
6.570;-0.096293;1.024409
6.580;-0.111245;1.019430
6.590;-0.127185;1.015153
6.600;-0.143207;1.011908
6.610;-0.158578;1.009616
6.620;-0.172948;1.007778
6.630;-0.186469;1.005623
6.640;-0.199782;1.002373
6.650;-0.213851;0.997505
6.660;-0.229686;0.990927
6.670;-0.248030;0.983000
6.680;-0.269103;0.974415
6.690;-0.292479;0.965990
6.700;-0.317109;0.958446
6.710;-0.341514;0.952247
6.720;-0.364062;0.947572
6.730;-0.383258;0.944386
6.740;-0.397970;0.942581
6.750;-0.407552;0.942087
6.760;-0.411901;0.942895
6.770;-0.411449;0.945010
6.780;-0.407088;0.948369
6.790;-0.400038;0.952811
6.800;-0.391663;0.958122
6.810;-0.383263;0.964107
6.820;-0.375887;0.970661
6.830;-0.370194;0.977753
6.840;-0.366397;0.985352
6.850;-0.364290;0.993324
6.860;-0.363350;1.001370
6.870;-0.362868;1.009041
6.880;-0.362069;1.015851
6.890;-0.360228;1.021430
6.900;-0.356750;1.025679
6.910;-0.351235;1.028847
6.920;-0.343509;1.031474
6.930;-0.333651;1.034221
6.940;-0.321988;1.037641
6.950;-0.309032;1.041995
6.960;-0.295344;1.047195
6.970;-0.281381;1.052890
6.980;-0.267417;1.058647
6.990;-0.253557;1.064152
7.000;-0.239812;1.069352
7.010;-0.226162;1.074451
7.020;-0.212567;1.079789
7.030;-0.198951;1.085648
7.040;-0.185207;1.092114
7.050;-0.171265;1.099051
7.060;-0.157205;1.106213
7.070;-0.143346;1.113398
7.080;-0.130246;1.120551
7.090;-0.118590;1.127734
7.100;-0.109008;1.135002
7.110;-0.101885;1.142264
7.120;-0.097239;1.149261
7.130;-0.094697;1.155693
7.140;-0.093570;1.161414
7.150;-0.093011;1.166581
7.160;-0.092232;1.171656
7.170;-0.090714;1.177246
7.180;-0.088340;1.183879
7.190;-0.085376;1.191827
7.200;-0.082292;1.201030
7.210;-0.079494;1.211155
7.220;-0.077090;1.221731
7.230;-0.074795;1.232296
7.240;-0.072023;1.242521
7.250;-0.068113;1.252253
7.260;-0.062596;1.261484
7.270;-0.055371;1.270263
7.280;-0.046751;1.278604
7.290;-0.037350;1.286433
7.300;-0.027899;1.293603
7.310;-0.019056;1.299964
7.320;-0.011263;1.305439
7.330;-0.004714;1.310098
7.340;0.000614;1.314190
7.350;0.004855;1.318100
7.360;0.008164;1.322204
7.370;0.010671;1.326688
7.380;0.012497;1.331447
7.390;0.013810;1.336149
7.400;0.014858;1.340410
7.410;0.015963;1.343983
7.420;0.017454;1.346826
7.430;0.019569;1.349051
7.440;0.022349;1.350800
7.450;0.025572;1.352127
7.460;0.028755;1.352939
7.470;0.031237;1.353016
7.480;0.032332;1.352103
7.490;0.031506;1.350009
7.500;0.028516;1.346674
7.510;0.023478;1.342180
7.520;0.016853;1.336718
7.530;0.009345;1.330526
7.540;0.001753;1.323808
7.550;-0.005184;1.316663
7.560;-0.010905;1.309057
7.570;-0.015081;1.300839
7.580;-0.017612;1.291781
7.590;-0.018583;1.281651
7.600;-0.018203;1.270290
7.610;-0.016774;1.257692
7.620;-0.014679;1.244054
7.630;-0.012353;1.229764
7.640;-0.010212;1.215310
7.650;-0.008528;1.201143
7.660;-0.007319;1.187574
7.670;-0.006339;1.174760
7.680;-0.005176;1.162791
7.690;-0.003456;1.151803
7.700;-0.001035;1.142048
7.710;0.001889;1.133851
7.720;0.004810;1.127475
7.730;0.007085;1.122956
7.740;0.008163;1.119989
7.750;0.007782;1.117929
7.760;0.006063;1.115901
7.770;0.003484;1.112996
7.780;0.000755;1.108480
7.790;-0.001357;1.101982
7.800;-0.002201;1.093577
7.810;-0.001399;1.083758
7.820;0.001073;1.073300
7.830;0.004886;1.063041
7.840;0.009461;1.053676
7.850;0.014144;1.045621
7.860;0.018389;1.038985
7.870;0.021894;1.033644
7.880;0.024628;1.029363
7.890;0.026773;1.025903
7.900;0.028611;1.023095
7.910;0.030420;1.020848
7.920;0.032407;1.019127
7.930;0.034684;1.017901
7.940;0.037266;1.017114
7.950;0.040062;1.016697
7.960;0.042874;1.016593
7.970;0.045395;1.016759
7.980;0.047242;1.017152
7.990;0.048000;1.017723
8.000;0.047324;1.018460
8.010;0.045065;1.019455
8.020;0.041416;1.020953
8.030;0.036995;1.023318
8.040;0.032788;1.026914
