Time[s];COPx[cm];COPy[cm]
0.010;0.057594;-0.163368
0.020;0.004115;-0.175143
0.030;-0.050962;-0.186213
0.040;-0.109503;-0.196070
0.050;-0.173692;-0.204595
0.060;-0.245509;-0.212144
0.070;-0.325892;-0.219518
0.080;-0.414005;-0.227798
0.090;-0.506971;-0.238073
0.100;-0.600268;-0.251159
0.110;-0.688650;-0.267382
0.120;-0.767288;-0.286525
0.130;-0.832737;-0.307959
0.140;-0.883435;-0.330915
0.150;-0.919619;-0.354766
0.160;-0.942729;-0.379170
0.170;-0.954571;-0.403997
0.180;-0.956545;-0.429102
0.190;-0.949209;-0.454058
0.200;-0.932291;-0.478027
0.210;-0.905101;-0.499847
0.220;-0.867167;-0.518298
0.230;-0.818797;-0.532418
0.240;-0.761296;-0.541680
0.250;-0.696678;-0.545933
0.260;-0.626964;-0.545155
0.270;-0.553396;-0.539149
0.280;-0.475985;-0.527382
0.290;-0.393697;-0.509090
0.300;-0.305267;-0.483615
0.310;-0.210284;-0.450824
0.320;-0.109948;-0.411373
0.330;-0.007023;-0.366667
0.340;0.095109;-0.318497
0.350;0.193871;-0.268529
0.360;0.288722;-0.217840
0.370;0.381600;-0.166687
0.380;0.476367;-0.114571
0.390;0.577437;-0.060544
0.400;0.688138;-0.003664
0.410;0.809399;0.056556
0.420;0.939229;0.119844
0.430;1.073136;0.185092
0.440;1.205289;0.250525
0.450;1.329927;0.314029
0.460;1.442512;0.373542
0.470;1.540280;0.427399
0.480;1.622108;0.474566
0.490;1.687876;0.514722
0.500;1.737658;0.548197
0.510;1.771089;0.575760
0.520;1.787175;0.598287
0.530;1.784656;0.616415
0.540;1.762792;0.630331
0.550;1.722199;0.639803
0.560;1.665316;0.644422
0.570;1.596165;0.643927
0.580;1.519411;0.638482
0.590;1.439082;0.628779
0.600;1.357487;0.615889
0.610;1.274827;0.600939
0.620;1.189717;0.584769
0.630;1.100386;0.567780
0.640;1.005997;0.550043
0.650;0.907469;0.531566
0.660;0.807461;0.512511
0.670;0.709605;0.493249
0.680;0.617437;0.474289
0.690;0.533514;0.456212
0.700;0.459058;0.439697
0.710;0.394165;0.425609
0.720;0.338413;0.415047
0.730;0.291508;0.409292
0.740;0.253673;0.409601
0.750;0.225545;0.416889
0.760;0.207601;0.431414
0.770;0.199413;0.452605
0.780;0.199179;0.479148
0.790;0.203902;0.509321
0.800;0.210284;0.541418
0.810;0.215975;0.574125
0.820;0.220591;0.606705
0.830;0.225996;0.638988
0.840;0.235668;0.671216
0.850;0.253375;0.703779
0.860;0.281669;0.736921
0.870;0.320786;0.770484
0.880;0.368345;0.803794
0.890;0.419941;0.835732
0.900;0.470411;0.865022
0.910;0.515336;0.890607
0.920;0.552271;0.912001
0.930;0.581307;0.929476
0.940;0.604769;0.944043
0.950;0.626196;0.957236
0.960;0.649003;0.970746
0.970;0.675347;0.986008
0.980;0.705597;1.003890
0.990;0.738582;1.024612
1.000;0.772418;1.047891
1.010;0.805554;1.073249
1.020;0.837564;1.100334
1.030;0.869393;1.129122
1.040;0.902982;1.159916
1.050;0.940456;1.193160
1.060;0.983241;1.229098
1.070;1.031481;1.267423
1.080;1.084014;1.307060
1.090;1.138849;1.346205
1.100;1.193883;1.382646
1.110;1.247464;1.414257
1.120;1.298553;1.439444
1.130;1.346482;1.457404
1.140;1.390520;1.468095
1.150;1.429577;1.471992
1.160;1.462252;1.469732
1.170;1.487284;1.461780
1.180;1.504177;1.448264
1.190;1.513659;1.429021
1.200;1.517692;1.403813
1.210;1.518954;1.372601
1.220;1.520004;1.335719
1.230;1.522469;1.293913
1.240;1.526641;1.248259
1.250;1.531646;1.200060
1.260;1.536136;1.150773
1.270;1.539194;1.101956
1.280;1.541123;1.055192
1.290;1.543808;1.011937
1.300;1.550491;0.973294
1.310;1.565006;0.939745
1.320;1.590709;0.910989
1.330;1.629541;0.886000
1.340;1.681551;0.863348
1.350;1.745048;0.841689
1.360;1.817199;0.820200
1.370;1.894773;0.798791
1.380;1.974703;0.778028
1.390;2.054300;0.758855
1.400;2.131169;0.742260
1.410;2.202976;0.729011
1.420;2.267305;0.719511
1.430;2.321743;0.713759
1.440;2.364226;0.711396
1.450;2.393525;0.711791
1.460;2.409640;0.714160
1.470;2.413861;0.717677
1.480;2.408413;0.721576
1.490;2.395761;0.725209
1.500;2.377837;0.728081
1.510;2.355480;0.729835
1.520;2.328319;0.730202
1.530;2.295154;0.728944
1.540;2.254704;0.725863
1.550;2.206422;0.720890
1.560;2.151072;0.714265
1.570;2.090862;0.706684
1.580;2.029070;0.699286
1.590;1.969323;0.693421
1.600;1.914760;0.690274
1.610;1.867346;0.690510
1.620;1.827519;0.694111
1.630;1.794239;0.700447
1.640;1.765345;0.708561
1.650;1.738009;0.717535
1.660;1.709103;0.726802
1.670;1.675389;0.736281
1.680;1.633585;0.746270
1.690;1.580474;0.757122
1.700;1.513217;0.768872
1.710;1.429908;0.780977
1.720;1.330274;0.792342
1.730;1.216226;0.801665
1.740;1.091986;0.807980
1.750;0.963565;0.811168
1.760;0.837667;0.812188
1.770;0.720279;0.812885
1.780;0.615380;0.815417
1.790;0.524223;0.821545
1.800;0.445430;0.832062
1.810;0.375871;0.846597
1.820;0.311948;0.863823
1.830;0.250751;0.881957
1.840;0.190685;0.899310
1.850;0.131417;0.914717
1.860;0.073389;0.927726
1.870;0.017271;0.938542
1.880;-0.036330;0.947772
1.890;-0.086841;0.956106
1.900;-0.133547;0.964072
1.910;-0.175500;0.971970
1.920;-0.211659;0.979967
1.930;-0.241200;0.988239
1.940;-0.263851;0.997047
1.950;-0.280042;1.006665
1.960;-0.290824;1.017191
1.970;-0.297575;1.028383
1.980;-0.301688;1.039648
1.990;-0.304337;1.050248
2.000;-0.306373;1.059620
2.010;-0.308309;1.067619
2.020;-0.310324;1.074553
2.030;-0.312262;1.080984
2.040;-0.313628;1.087424
2.050;-0.313632;1.094094
2.060;-0.311308;1.100856
2.070;-0.305651;1.107331
2.080;-0.295707;1.113130
2.090;-0.280560;1.118111
2.100;-0.259225;1.122545
2.110;-0.230521;1.127107
2.120;-0.192995;1.132702
2.130;-0.144978;1.140207
2.140;-0.084836;1.150216
2.150;-0.011438;1.162867
2.160;0.075261;1.177759
2.170;0.173725;1.193992
2.180;0.280629;1.210350
2.190;0.391046;1.225574
2.200;0.498959;1.238608
2.210;0.597997;1.248734
2.220;0.682221;1.255543
2.230;0.746860;1.258797
2.240;0.788863;1.258291
2.250;0.807222;1.253774
2.260;0.802991;1.244944
2.270;0.778987;1.231505
2.280;0.739215;1.213237
2.290;0.688132;1.190064
2.300;0.629951;1.162092
2.310;0.568112;1.129595
2.320;0.505014;1.092944
2.330;0.442004;1.052508
2.340;0.379543;1.008573
2.350;0.317504;0.961285
2.360;0.255522;0.910664
2.370;0.193317;0.856674
2.380;0.130921;0.799409
2.390;0.068751;0.739313
2.400;0.007535;0.677357
2.410;-0.051894;0.615019
2.420;-0.108845;0.553985
2.430;-0.162992;0.495633
2.440;-0.214509;0.440504
2.450;-0.264054;0.388030
2.460;-0.312586;0.336704
2.470;-0.361010;0.284668
2.480;-0.409760;0.230466
2.490;-0.458461;0.173622
2.500;-0.505834;0.114775
2.510;-0.549951;0.055368
2.520;-0.588742;-0.002900
2.530;-0.620580;-0.058604
2.540;-0.644679;-0.110890
2.550;-0.661168;-0.159462
2.560;-0.670852;-0.204316
2.570;-0.674848;-0.245369
2.580;-0.674295;-0.282158
2.590;-0.670241;-0.313757
2.600;-0.663642;-0.338934
2.610;-0.655371;-0.356488
2.620;-0.646145;-0.365608
2.630;-0.636392;-0.366124
2.640;-0.626145;-0.358526
2.650;-0.615082;-0.343774
2.660;-0.602746;-0.322967
2.670;-0.588902;-0.297064
2.680;-0.573858;-0.266753
2.690;-0.558628;-0.232523
2.700;-0.544828;-0.194832
2.710;-0.534315;-0.154248
2.720;-0.528648;-0.111493
2.730;-0.528584;-0.067373
2.740;-0.533777;-0.022629
2.750;-0.542828;0.022253
2.760;-0.553682;0.067152
2.770;-0.564257;0.112262
2.780;-0.573090;0.157882
2.790;-0.579787;0.204135
2.800;-0.585089;0.250754
2.810;-0.590441;0.297061
2.820;-0.597168;0.342141
2.830;-0.605495;0.385158
2.840;-0.613784;0.425683
2.850;-0.618330;0.463906
2.860;-0.613958;0.500692
2.870;-0.595345;0.537433
2.880;-0.558723;0.575743
2.890;-0.503303;0.617037
2.900;-0.431809;0.662149
2.910;-0.349817;0.711132
2.920;-0.264126;0.763364
2.930;-0.180813;0.817876
2.940;-0.103776;0.873772
2.950;-0.034260;0.930541
2.960;0.028561;0.988163
2.970;0.086347;1.046975
2.980;0.140355;1.107352
2.990;0.190738;1.169311
3.000;0.236636;1.232188
3.010;0.276848;1.294531
3.020;0.310604;1.354259
3.030;0.338025;1.409063
3.040;0.360058;1.456950
3.050;0.378017;1.496742
3.060;0.393050;1.528368
3.070;0.405802;1.552812
3.080;0.416426;1.571754
3.090;0.424842;1.587026
3.100;0.431042;1.600060
3.110;0.435256;1.611519
3.120;0.437894;1.621215
3.130;0.439342;1.628303
3.140;0.439744;1.631658
3.150;0.438911;1.630289
3.160;0.436400;1.623676
3.170;0.431715;1.611888
3.180;0.424492;1.595482
3.190;0.414556;1.575215
3.200;0.401818;1.551733
3.210;0.386106;1.525347
3.220;0.367073;1.496003
3.230;0.344326;1.463420
3.240;0.317749;1.427364
3.250;0.287876;1.387938
3.260;0.256059;1.345806
3.270;0.224275;1.302250
3.280;0.194587;1.259034
3.290;0.168448;1.218112
3.300;0.146148;1.181304
3.310;0.126676;1.150028
3.320;0.108123;1.125164
3.330;0.088500;1.107041
3.340;0.066674;1.095523
3.350;0.043019;1.090117
3.360;0.019472;1.090089
3.370;-0.001043;1.094581
3.380;-0.015656;1.102716
3.390;-0.022623;1.113691
3.400;-0.022012;1.126816
3.410;-0.015727;1.141485
3.420;-0.006849;1.157150
3.430;0.001445;1.173341
3.440;0.006990;1.189744
3.450;0.009379;1.206250
3.460;0.010104;1.222888
3.470;0.012092;1.239621
3.480;0.018843;1.256102
3.490;0.033534;1.271530
3.500;0.058341;1.284742
3.510;0.094155;1.294547
3.520;0.140635;1.300124
3.530;0.196469;1.301305
3.540;0.259641;1.298567
3.550;0.327621;1.292735
3.560;0.397481;1.284562
3.570;0.466064;1.274383
3.580;0.530279;1.262024
3.590;0.587534;1.246983
3.600;0.636156;1.228799
3.610;0.675652;1.207388
3.620;0.706668;1.183228
3.630;0.730636;1.157289
3.640;0.749283;1.130747
3.650;0.764195;1.104588
3.660;0.776638;1.079224
3.670;0.787731;1.054307
3.680;0.798854;1.028798
3.690;0.812069;1.001330
3.700;0.830227;0.970721
3.710;0.856572;0.936460
3.720;0.893888;0.898939
3.730;0.943492;0.859332
3.740;1.004480;0.819178
3.750;1.073570;0.779843
3.760;1.145628;0.742118
3.770;1.214714;0.706145
3.780;1.275306;0.671686
3.790;1.323372;0.638551
3.800;1.356989;0.606933
3.810;1.376372;0.577468
3.820;1.383348;0.551002
3.830;1.380457;0.528201
3.840;1.369991;0.509214
3.850;1.353268;0.493545
3.860;1.330397;0.480197
3.870;1.300603;0.468026
3.880;1.262949;0.456164
3.890;1.217145;0.444345
3.900;1.164018;0.433007
3.910;1.105414;0.423159
3.920;1.043521;0.416069
3.930;0.979891;0.412928
3.940;0.914609;0.414590
3.950;0.846021;0.421479
3.960;0.771167;0.433636
3.970;0.686798;0.450854
3.980;0.590570;0.472814
3.990;0.482025;0.499206
4.000;0.363049;0.529794
4.010;0.237702;0.564422
4.020;0.111511;0.602934
4.030;-0.009546;0.645038
4.040;-0.120076;0.690155
4.050;-0.216040;0.737366
4.060;-0.295115;0.785490
4.070;-0.356682;0.833267
4.080;-0.401555;0.879547
4.090;-0.431622;0.923430
4.100;-0.449471;0.964337
4.110;-0.458001;1.002022
4.120;-0.459980;1.036513
4.130;-0.457595;1.067981
4.140;-0.452098;1.096613
4.150;-0.443644;1.122580
4.160;-0.431427;1.146164
4.170;-0.414104;1.167960
4.180;-0.390471;1.189009
4.190;-0.360203;1.210710
4.200;-0.324448;1.234520
4.210;-0.286014;1.261567
4.220;-0.249027;1.292376
4.230;-0.218102;1.326801
4.240;-0.197237;1.364144
4.250;-0.188754;1.403356
4.260;-0.192637;1.443249
4.270;-0.206466;1.482696
4.280;-0.226000;1.520810
4.290;-0.246170;1.557114
4.300;-0.262176;1.591621
4.310;-0.270377;1.624781
4.320;-0.268746;1.657298
4.330;-0.256855;1.689836
4.340;-0.235477;1.722724
4.350;-0.206015;1.755775
4.360;-0.169969;1.788283
4.370;-0.128569;1.819219
4.380;-0.082621;1.847523
4.390;-0.032544;1.872364
4.400;0.021425;1.893276
4.410;0.078958;1.910158
4.420;0.139354;1.923146
4.430;0.201326;1.932421
4.440;0.262876;1.938013
4.450;0.321313;1.939673
4.460;0.373481;1.936838
4.470;0.416227;1.928705
4.480;0.447039;1.914382
4.490;0.464695;1.893112
4.500;0.469705;1.864516
4.510;0.464389;1.828818
4.520;0.452529;1.786990
4.530;0.438674;1.740746
4.540;0.427289;1.692356
4.550;0.421982;1.644287
4.560;0.425004;1.598754
4.570;0.437143;1.557293
4.580;0.457979;1.520492
4.590;0.486392;1.487952
4.600;0.521136;1.458485
4.610;0.561287;1.430500
4.620;0.606428;1.402502
4.630;0.656543;1.373586
4.640;0.711711;1.343762
4.650;0.771760;1.313984
4.660;0.836024;1.285864
4.670;0.903274;1.261152
4.680;0.971828;1.241160
4.690;1.039804;1.226337
4.700;1.105500;1.216132
4.710;1.167797;1.209176
4.720;1.226437;1.203698
4.730;1.282055;1.197987
4.740;1.335903;1.190751
4.750;1.389363;1.181268
4.760;1.443396;1.169357
4.770;1.498138;1.155217
4.780;1.552756;1.139205
4.790;1.605651;1.121626
4.800;1.654944;1.102594
4.810;1.699091;1.082056
4.820;1.737416;1.059967
4.830;1.770388;1.036567
4.840;1.799549;1.012583
4.850;1.827107;0.989248
4.860;1.855301;0.968078
4.870;1.885704;0.950504
4.880;1.918733;0.937463
4.890;1.953538;0.929085
4.900;1.988336;0.924606
4.910;2.021064;0.922542
4.920;2.050124;0.921090
4.930;2.074977;0.918608
4.940;2.096367;0.914012
4.950;2.116079;0.907009
4.960;2.136294;0.898115
4.970;2.158782;0.888467
4.980;2.184218;0.879458
4.990;2.211848;0.872270
5.000;2.239589;0.867443
5.010;2.264468;0.864643
5.020;2.283233;0.862761
5.030;2.292952;0.860330
5.040;2.291439;0.856133
5.050;2.277490;0.849765
5.060;2.250959;0.841923
5.070;2.212756;0.834287
5.080;2.164748;0.829005
5.090;2.109550;0.827991
5.100;2.050202;0.832314
5.110;1.989784;0.841937
5.120;1.931038;0.855863
5.130;1.876040;0.872577
5.140;1.825955;0.890554
5.150;1.780914;0.908613
5.160;1.740067;0.926015
5.170;1.701865;0.942334
5.180;1.664552;0.957231
5.190;1.626779;0.970324
5.200;1.588094;0.981230
5.210;1.549151;0.989778
5.220;1.511504;0.996223
5.230;1.477053;1.001328
5.240;1.447322;1.006232
5.250;1.422806;1.012182
5.260;1.402579;1.020227
5.270;1.384274;1.030995
5.280;1.364436;1.044609
5.290;1.339173;1.060732
5.300;1.304974;1.078706
5.310;1.259505;1.097695
5.320;1.202199;1.116798
5.330;1.134427;1.135089
5.340;1.059152;1.151640
5.350;0.980164;1.165554
5.360;0.901160;1.176040
5.370;0.824996;1.182488
5.380;0.753330;1.184508
5.390;0.686695;1.181917
5.400;0.624896;1.174697
5.410;0.567552;1.163000
5.420;0.514606;1.147187
5.430;0.466704;1.127902
5.440;0.425365;1.106099
5.450;0.392900;1.082978
5.460;0.372051;1.059815
5.470;0.365378;1.037738
5.480;0.374530;1.017531
5.490;0.399629;0.999536
5.500;0.439033;0.983644
5.510;0.489628;0.969354
5.520;0.547635;0.955872
5.530;0.609721;0.942258
5.540;0.674059;0.927606
5.550;0.740937;0.911240
5.560;0.812660;0.892856
5.570;0.892741;0.872600
5.580;0.984649;0.851031
5.590;1.090572;0.828999
5.600;1.210599;0.807440
5.610;1.342582;0.787138
5.620;1.482654;0.768532
5.630;1.626184;0.751629
5.640;1.768798;0.736058
5.650;1.907143;0.721235
5.660;2.039185;0.706578
5.670;2.164031;0.691701
5.680;2.281416;0.676493
5.690;2.391070;0.661083
5.700;2.492207;0.645701
5.710;2.583291;0.630521
5.720;2.662118;0.615576
5.730;2.726182;0.600780
5.740;2.773189;0.586041
5.750;2.801570;0.571373
5.760;2.810834;0.556911
5.770;2.801640;0.542805
5.780;2.775608;0.529032
5.790;2.734927;0.515268
5.800;2.681930;0.500924
5.810;2.618742;0.485348
5.820;2.547045;0.468106
5.830;2.467961;0.449186
5.840;2.382009;0.429059
5.850;2.289125;0.408559
5.860;2.188740;0.388637
5.870;2.079922;0.370070
5.880;1.961587;0.353240
5.890;1.832748;0.338057
5.900;1.692733;0.324042
5.910;1.541337;0.310518
5.920;1.378906;0.296848
5.930;1.206464;0.282660
5.940;1.025964;0.267990
5.950;0.840638;0.253323
5.960;0.655277;0.239479
5.970;0.476214;0.227374
5.980;0.310785;0.217724
5.990;0.166278;0.210807
6.000;0.048568;0.206385
6.010;-0.039147;0.203831
6.020;-0.097065;0.202423
6.030;-0.128654;0.201678
6.040;-0.139623;0.201600
6.050;-0.136309;0.202729
6.060;-0.124039;0.205942
6.070;-0.106068;0.212082
6.080;-0.083449;0.221553
6.090;-0.055769;0.234069
6.100;-0.022329;0.248674
6.110;0.016859;0.264042
6.120;0.060723;0.278921
6.130;0.107582;0.292559
6.140;0.156090;0.304927
6.150;0.206101;0.316683
6.160;0.258929;0.328909
6.170;0.316782;0.342722
6.180;0.381623;0.358881
6.190;0.454035;0.377527
6.200;0.532669;0.398110
6.210;0.614547;0.419533
6.220;0.696085;0.440462
6.230;0.774294;0.459695
6.240;0.847623;0.476453
6.250;0.916067;0.490472
6.260;0.980551;0.501851
6.270;1.041947;0.510825
6.280;1.100261;0.517597
6.290;1.154443;0.522355
6.300;1.202935;0.525394
6.310;1.244711;0.527218
6.320;1.280287;0.528533
6.330;1.312162;0.530157
6.340;1.344401;0.532897
6.350;1.381396;0.537472
6.360;1.426264;0.544442
6.370;1.479506;0.554109
6.380;1.538462;0.566419
6.390;1.597773;0.580887
6.400;1.650665;0.596625
6.410;1.690623;0.612457
6.420;1.712924;0.627080
6.430;1.715556;0.639216
6.440;1.699252;0.647716
6.450;1.666697;0.651639
6.460;1.621234;0.650318
6.470;1.565569;0.643441
6.480;1.500973;0.631137
6.490;1.427288;0.614055
6.500;1.343776;0.593406
6.510;1.250483;0.570924
6.520;1.149530;0.548683
6.530;1.045715;0.528816
6.540;0.946087;0.513213
6.550;0.858563;0.503310
6.560;0.790119;0.500008
6.570;0.745178;0.503713
6.580;0.724771;0.514438
6.590;0.726643;0.531896
6.600;0.746211;0.555520
6.610;0.777957;0.584404
6.620;0.816823;0.617221
6.630;0.859201;0.652224
6.640;0.903305;0.687365
6.650;0.948874;0.720541
6.660;0.996412;0.749891
6.670;1.046272;0.774055
6.680;1.097991;0.792312
6.690;1.150123;0.804562
6.700;1.200683;0.811150
6.710;1.248009;0.812612
6.720;1.291687;0.809475
6.730;1.333102;0.802183
6.740;1.375349;0.791172
6.750;1.422495;0.777016
6.760;1.478438;0.760534
6.770;1.545749;0.742765
6.780;1.624818;0.724830
6.790;1.713569;0.707704
6.800;1.807791;0.692005
6.810;1.902021;0.677850
6.820;1.990768;0.664873
6.830;2.069720;0.652414
6.840;2.136567;0.639868
6.850;2.191175;0.627049
6.860;2.235053;0.614387
6.870;2.270376;0.602872
6.880;2.298947;0.593743
6.890;2.321531;0.588069
6.900;2.337741;0.586374
6.910;2.346426;0.588454
6.920;2.346285;0.593479
6.930;2.336393;0.600326
6.940;2.316448;0.608025
6.950;2.286701;0.616113
6.960;2.247690;0.624728
6.970;2.199986;0.634389
6.980;2.144071;0.645561
6.990;2.080395;0.658193
7.000;2.009526;0.671455
7.010;1.932277;0.683818
7.020;1.849730;0.693481
7.030;1.763103;0.698987
7.040;1.673523;0.699783
7.050;1.581808;0.696468
7.060;1.488368;0.690624
7.070;1.393279;0.684296
7.080;1.296499;0.679353
7.090;1.198092;0.676983
7.100;1.098397;0.677505
7.110;0.998059;0.680536
7.120;0.897986;0.685412
7.130;0.799262;0.691684
7.140;0.703090;0.699447
7.150;0.610787;0.709346
7.160;0.523853;0.722262
7.170;0.444061;0.738822
7.180;0.373442;0.759000
7.190;0.314070;0.781984
7.200;0.267591;0.806365
7.210;0.234648;0.830535
7.220;0.214440;0.853118
7.230;0.204678;0.873287
7.240;0.202029;0.890862
7.250;0.202932;0.906219
7.260;0.204502;0.920053
7.270;0.205185;0.933112
7.280;0.204906;0.945982
7.290;0.204705;0.958975
7.300;0.206046;0.972111
7.310;0.210135;0.985163
7.320;0.217565;0.997739
7.330;0.228430;1.009364
7.340;0.242839;1.019489
7.350;0.261572;1.027487
7.360;0.286485;1.032673
7.370;0.320406;1.034433
7.380;0.366419;1.032413
7.390;0.426760;1.026662
7.400;0.501727;1.017652
7.410;0.589046;1.006179
7.420;0.683980;0.993173
7.430;0.780179;0.979523
7.440;0.870986;0.965957
7.450;0.950800;0.953014
7.460;1.016103;0.941075
7.470;1.065946;0.930407
7.480;1.101836;0.921163
7.490;1.127151;0.913351
7.500;1.146219;0.906811
7.510;1.163293;0.901241
7.520;1.181597;0.896281
7.530;1.202662;0.891632
7.540;1.226108;0.887175
7.550;1.249949;0.883034
7.560;1.271360;0.879545
7.570;1.287676;0.877130
7.580;1.297349;0.876123
7.590;1.300532;0.876621
7.600;1.299070;0.878437
7.610;1.295910;0.881178
7.620;1.294123;0.884404
7.630;1.295934;0.887818
7.640;1.302119;0.891393
7.650;1.311963;0.895382
7.660;1.323742;0.900202
7.670;1.335486;0.906234
7.680;1.345739;0.913606
7.690;1.354048;0.922072
7.700;1.361015;0.931014
7.710;1.367939;0.939566
7.720;1.376213;0.946818
7.730;1.386734;0.952034
7.740;1.399569;0.954847
7.750;1.413981;0.955357
7.760;1.428784;0.954105
7.770;1.442893;0.951918
7.780;1.455843;0.949666
7.790;1.468074;0.947989
7.800;1.480873;0.947076
7.810;1.495968;0.946600
7.820;1.514934;0.945868
7.830;1.538605;0.944115
7.840;1.566756;0.940824
7.850;1.598197;0.935911
7.860;1.631265;0.929736
7.870;1.664529;0.922967
7.880;1.697377;0.916377
7.890;1.730250;0.910651
7.900;1.764404;0.906248
7.910;1.801313;0.903369
7.920;1.841987;0.902028
7.930;1.886509;0.902147
7.940;1.933968;0.903582
7.950;1.982769;0.906065
7.960;2.031153;0.909080
7.970;2.077690;0.911799
7.980;2.121575;0.913140
7.990;2.162639;0.911983
8.000;2.201116;0.907496
8.010;2.237299;0.899424
8.020;2.271238;0.888208
8.030;2.302619;0.874856
8.040;2.330805;0.860630
8.050;2.354987;0.846683
8.060;2.374346;0.833828
8.070;2.388165;0.822509
8.080;2.395887;0.812947
8.090;2.397107;0.805351
8.100;2.391548;0.800055
8.110;2.379024;0.797500
8.120;2.359429;0.798069
8.130;2.332738;0.801868
8.140;2.299041;0.808593
8.150;2.258591;0.817530
8.160;2.211874;0.827716
8.170;2.159617;0.838184
8.180;2.102698;0.848256
8.190;2.041930;0.857780
8.200;1.977811;0.867223
8.210;1.910348;0.877543
8.220;1.839081;0.889852
