Time[s];COPx[cm];COPy[cm]
0.010;3.243497;5.483296
0.020;3.256735;5.482117
0.030;3.272128;5.482510
0.040;3.291471;5.485821
0.050;3.315998;5.492864
0.060;3.346234;5.503686
0.070;3.382031;5.517440
0.080;3.422822;5.532429
0.090;3.467983;5.546360
0.100;3.517157;5.556778
0.110;3.570356;5.561580
0.120;3.627782;5.559471
0.130;3.689454;5.550220
0.140;3.754823;5.534645
0.150;3.822599;5.514328
0.160;3.890870;5.491145
0.170;3.957477;5.466730
0.180;4.020461;5.441991
0.190;4.078394;5.416818
0.200;4.130516;5.390050
0.210;4.176671;5.359749
0.220;4.217182;5.323686
0.230;4.252754;5.279903
0.240;4.284458;5.227157
0.250;4.313730;5.165130
0.260;4.342312;5.094395
0.270;4.372097;5.016200
0.280;4.404864;4.932216
0.290;4.441956;4.844325
0.300;4.483987;4.754515
0.310;4.530715;4.664798
0.320;4.581165;4.577119
0.330;4.633970;4.493201
0.340;4.687816;4.414367
0.350;4.741789;4.341427
0.360;4.795506;4.274671
0.370;4.849002;4.213972
0.380;4.902457;4.158922
0.390;4.955891;4.108903
0.400;5.008951;4.063070
0.410;5.060875;4.020301
0.420;5.110670;3.979222
0.430;5.157417;3.938368
0.440;5.200578;3.896500
0.450;5.240147;3.852959
0.460;5.276591;3.807887
0.470;5.310607;3.762159
0.480;5.342842;3.717018
0.490;5.373728;3.673555
0.500;5.403486;3.632281
0.510;5.432293;3.592987
0.520;5.460479;3.554895
0.530;5.488630;3.517017
0.540;5.517527;3.478514
0.550;5.547944;3.438917
0.560;5.580390;3.398165
0.570;5.614942;3.356471
0.580;5.651224;3.314077
0.590;5.688521;3.271012
0.600;5.725970;3.226920
0.610;5.762745;3.181031
0.620;5.798180;3.132310
0.630;5.831838;3.079749
0.640;5.863527;3.022729
0.650;5.893267;2.961307
0.660;5.921197;2.896289
0.670;5.947435;2.829063
0.680;5.971926;2.761270
0.690;5.994361;2.694467
0.700;6.014179;2.629900
0.710;6.030616;2.568467
0.720;6.042718;2.510825
0.730;6.049326;2.457530
0.740;6.049095;2.409100
0.750;6.040618;2.365942
0.760;6.022663;2.328190
0.770;5.994469;2.295590
0.780;5.956046;2.267502
0.790;5.908374;2.243031
0.800;5.853460;2.221222
0.810;5.794165;2.201219
0.820;5.733808;2.182329
0.830;5.675606;2.164013
0.840;5.622120;2.145843
0.850;5.574899;2.127500
0.860;5.534424;2.108840
0.870;5.500344;2.090020
0.880;5.471886;2.071604
0.890;5.448295;2.054572
0.900;5.429212;2.040167
0.910;5.414902;2.029595
0.920;5.406282;2.023678
0.930;5.404719;2.022596
0.940;5.411663;2.025810
0.950;5.428196;2.032224
0.960;5.454623;2.040549
0.970;5.490210;2.049730
0.980;5.533142;2.059286
0.990;5.580724;2.069447
1.000;5.629775;2.081017
1.010;5.677085;2.095060
1.020;5.719837;2.112519
1.030;5.755908;2.133908
1.040;5.783975;2.159163
1.050;5.803456;2.187640
1.060;5.814307;2.218218
1.070;5.816786;2.249453
1.080;5.811274;2.279791
1.090;5.798178;2.307830
1.100;5.777926;2.332625
1.110;5.750977;2.353951
1.120;5.717796;2.372437
1.130;5.678780;2.389512
1.140;5.634198;2.407146
1.150;5.584219;2.427487
1.160;5.529041;2.452486
1.170;5.469079;2.483596
1.180;5.405121;2.521578
1.190;5.338401;2.566443
1.200;5.270517;2.617517
1.210;5.203202;2.673673
1.220;5.137976;2.733638
1.230;5.075804;2.796297
1.240;5.016897;2.860850
1.250;4.960732;2.926790
1.260;4.906295;2.993725
1.270;4.852436;3.061148
1.280;4.798216;3.128275
1.290;4.743091;3.194017
1.300;4.686909;3.257102
1.310;4.629770;3.316287
1.320;4.571865;3.370622
1.330;4.513364;3.419655
1.340;4.454358;3.463523
1.350;4.394804;3.502856
1.360;4.334466;3.538519
1.370;4.272871;3.571295
1.380;4.209390;3.601649
1.390;4.143457;3.629647
1.400;4.074900;3.655049
1.410;4.004251;3.677511
1.420;3.932893;3.696823
1.430;3.862995;3.713094
1.440;3.797212;3.726834
1.450;3.738296;3.738869
1.460;3.688718;3.750114
1.470;3.650407;3.761285
1.480;3.624616;3.772672
1.490;3.611877;3.784092
1.500;3.612016;3.795023
1.510;3.624235;3.804877
1.520;3.647264;3.813277
1.530;3.679569;3.820178
1.540;3.719588;3.825752
1.550;3.765936;3.830081
1.560;3.817527;3.832852
1.570;3.873572;3.833273
1.580;3.933457;3.830311
1.590;3.996516;3.823127
1.600;4.061812;3.811489
1.610;4.128043;3.795931
1.620;4.193665;3.777566
1.630;4.257219;3.757663
1.640;4.317712;3.737157
1.650;4.374891;3.716287
1.660;4.429273;3.694476
1.670;4.481949;3.670491
1.680;4.534234;3.642816
1.690;4.587305;3.610098
1.700;4.641920;3.571513
1.710;4.698294;3.526916
1.720;4.756125;3.476752
1.730;4.814764;3.421786
1.740;4.873445;3.362806
1.750;4.931509;3.300444
1.760;4.988567;3.235169
1.770;5.044550;3.167403
1.780;5.099669;3.097678
1.790;5.154280;3.026752
1.800;5.208713;2.955597
1.810;5.263111;2.885254
1.820;5.317308;2.816568
1.830;5.370813;2.749922
1.840;5.422922;2.685111
1.850;5.472928;2.621439
1.860;5.520370;2.558016
1.870;5.565202;2.494137
1.880;5.607808;2.429586
1.890;5.648797;2.364743
1.900;5.688642;2.300497
1.910;5.727275;2.237981
1.920;5.763850;2.178259
1.930;5.796791;2.122036
1.940;5.824131;2.069480
1.950;5.844015;2.020202
1.960;5.855171;1.973413
1.970;5.857198;1.928179
1.980;5.850580;1.883673
1.990;5.836418;1.839288
2.000;5.816007;1.794563
2.010;5.790419;1.748974
2.020;5.760283;1.701679
2.030;5.725845;1.651374
2.040;5.687260;1.596367
2.050;5.644948;1.534945
2.060;5.599808;1.465927
2.070;5.553211;1.389207
2.080;5.506768;1.306048
2.090;5.461983;1.218976
2.100;5.419939;1.131316
2.110;5.381123;1.046524
2.120;5.345447;0.967582
2.130;5.312408;0.896638
2.140;5.281372;0.834977
2.150;5.251906;0.783219
2.160;5.224080;0.741576
2.170;5.198607;0.710026
2.180;5.176686;0.688347
2.190;5.159556;0.676047
2.200;5.147889;0.672326
2.210;5.141305;0.676161
2.220;5.138198;0.686550
2.230;5.135976;0.702802
2.240;5.131565;0.724745
2.250;5.122008;0.752734
2.260;5.104944;0.787505
2.270;5.078850;0.829959
2.280;5.043064;0.881009
2.290;4.997638;0.941492
2.300;4.943100;1.012073
2.310;4.880204;1.093060
2.320;4.809660;1.184147
2.330;4.731934;1.284185
2.340;4.647196;1.391116
2.350;4.555492;1.502162
2.360;4.457128;1.614243
2.370;4.353123;1.724558
2.380;4.245502;1.831144
2.390;4.137260;1.933218
2.400;4.031970;2.031159
2.410;3.933139;2.126127
2.420;3.843536;2.219467
2.430;3.764736;2.312155
2.440;3.697031;2.404478
2.450;3.639738;2.496041
2.460;3.591782;2.586009
2.470;3.552313;2.673450
2.480;3.521112;2.757596
2.490;3.498628;2.837966
2.500;3.485627;2.914319
2.510;3.482585;2.986495
2.520;3.489128;3.054233
2.530;3.503773;3.117068
2.540;3.524146;3.174320
2.550;3.547587;3.225164
2.560;3.571907;3.268739
2.570;3.595984;3.304286
2.580;3.619955;3.331318
2.590;3.644929;3.349774
2.600;3.672323;3.360102
2.610;3.703097;3.363220
2.620;3.737222;3.360352
2.630;3.773612;3.352752
2.640;3.810526;3.341405
2.650;3.846223;3.326777
2.660;3.879563;3.308699
2.670;3.910311;3.286420
2.680;3.939063;3.258869
2.690;3.966857;3.225078
2.700;3.994674;3.184642
2.710;4.023007;3.138004
2.720;4.051684;3.086406
2.730;4.080031;3.031552
2.740;4.107293;2.975149
2.750;4.133146;2.918544
2.760;4.158050;2.862582
2.770;4.183264;2.807686
2.780;4.210519;2.754089
2.790;4.241486;2.702090
2.800;4.277261;2.652211
2.810;4.318089;2.605218
2.820;4.363406;2.562009
2.830;4.412170;2.523454
2.840;4.463280;2.490252
2.850;4.515909;2.462864
2.860;4.569606;2.441526
2.870;4.624195;2.426308
2.880;4.679596;2.417177
2.890;4.735699;2.414042
2.900;4.792324;2.416738
2.910;4.849188;2.424993
2.920;4.905837;2.438374
2.930;4.961541;2.456273
2.940;5.015233;2.477949
2.950;5.065587;2.502618
2.960;5.111239;2.529577
2.970;5.151112;2.558327
2.980;5.184730;2.588616
2.990;5.212423;2.620383
3.000;5.235315;2.653595
3.010;5.255092;2.688033
3.020;5.273614;2.723142
3.030;5.292462;2.758026
3.040;5.312586;2.791651
3.050;5.334123;2.823158
3.060;5.356447;2.852134
3.070;5.378413;2.878685
3.080;5.398734;2.903308
3.090;5.416358;2.926615
3.100;5.430730;2.949051
3.110;5.441902;2.970696
3.120;5.450491;2.991203
3.130;5.457510;3.009881
3.140;5.464108;3.025894
3.150;5.471222;3.038522
3.160;5.479232;3.047390
3.170;5.487741;3.052601
3.180;5.495613;3.054700
3.190;5.501265;3.054497
3.200;5.503130;3.052810
3.210;5.500120;3.050271
3.220;5.491945;3.047251
3.230;5.479225;3.043928
3.240;5.463386;3.040400
3.250;5.446385;3.036754
3.260;5.430326;3.033057
3.270;5.417055;3.029323
3.280;5.407847;3.025509
3.290;5.403276;3.021585
3.300;5.403266;3.017645
3.310;5.407277;3.013996
3.320;5.414522;3.011183
3.330;5.424191;3.009933
3.340;5.435632;3.011029
3.350;5.448484;3.015144
3.360;5.462694;3.022676
3.370;5.478428;3.033627
3.380;5.495884;3.047551
3.390;5.515122;3.063620
3.400;5.535969;3.080780
3.410;5.558028;3.097950
3.420;5.580744;3.114162
3.430;5.603447;3.128637
3.440;5.625347;3.140783
3.450;5.645501;3.150188
3.460;5.662805;3.156618
3.470;5.676077;3.160019
3.480;5.684216;3.160514
3.490;5.686411;3.158374
3.500;5.682311;3.153953
3.510;5.672069;3.147612
3.520;5.656231;3.139664
3.530;5.635463;3.130370
3.540;5.610220;3.119957
3.550;5.580488;3.108598
3.560;5.545722;3.096328
3.570;5.505068;3.082942
3.580;5.457815;3.067958
3.590;5.403937;3.050713
3.600;5.344536;3.030567
3.610;5.282016;3.007152
3.620;5.219867;2.980532
3.630;5.162060;2.951214
3.640;5.112188;2.920014
3.650;5.072649;2.887843
3.660;5.044182;2.855546
3.670;5.025911;2.823847
3.680;5.015863;2.793381
3.690;5.011727;2.764717
3.700;5.011547;2.738285
3.710;5.014173;2.714205
3.720;5.019400;2.692107
3.730;5.027854;2.671057
3.740;5.040693;2.649662
3.750;5.059205;2.626347
3.760;5.084354;2.599737
3.770;5.116380;2.569009
3.780;5.154569;2.534123
3.790;5.197278;2.495844
3.800;5.242246;2.455556
3.810;5.287062;2.414903
3.820;5.329632;2.375367
3.830;5.368462;2.337884
3.840;5.402697;2.302670
3.850;5.431945;2.269292
3.860;5.456037;2.236957
3.870;5.474835;2.204878
3.880;5.488161;2.172578
3.890;5.495832;2.140025
3.900;5.497734;2.107599
3.910;5.493853;2.075904
3.920;5.484270;2.045566
3.930;5.469173;2.017097
3.940;5.448967;1.990873
3.950;5.424465;1.967145
3.960;5.397058;1.946041
3.970;5.368707;1.927506
3.980;5.341694;1.911272
3.990;5.318165;1.896896
4.000;5.299624;1.883896
4.010;5.286581;1.871926
4.020;5.278493;1.860876
4.030;5.274016;1.850867
4.040;5.271448;1.842148
4.050;5.269194;1.834951
4.060;5.266108;1.829358
4.070;5.261673;1.825201
4.080;5.256015;1.822005
4.090;5.249779;1.819034
4.100;5.243863;1.815410
4.110;5.239068;1.810315
4.120;5.235740;1.803226
4.130;5.233522;1.794138
4.140;5.231307;1.783689
4.150;5.227387;1.773110
4.160;5.219735;1.763978
4.170;5.206292;1.757838
4.180;5.185211;1.755840
4.190;5.155066;1.758493
4.200;5.115072;1.765588
4.210;5.065285;1.776273
4.220;5.006704;1.789220
4.230;4.941178;1.802892
4.240;4.871091;1.815870
4.250;4.798918;1.827193
4.260;4.726762;1.836617
4.270;4.656012;1.844704
4.280;4.587184;1.852710
4.290;4.519997;1.862281
4.300;4.453702;1.875035
4.310;4.387575;1.892139
4.320;4.321483;1.913984
4.330;4.256320;1.940044
4.340;4.194176;1.968947
4.350;4.138133;1.998748
4.360;4.091722;2.027336
4.370;4.058166;2.052874
4.380;4.039660;2.074136
4.390;4.036896;2.090684
4.400;4.048968;2.102851
4.410;4.073649;2.111576
4.420;4.107878;2.118128
4.430;4.148296;2.123798
4.440;4.191660;2.129600
4.450;4.235107;2.136055
4.460;4.276228;2.143138
4.470;4.313055;2.150441
4.480;4.343995;2.157460
4.490;4.367784;2.163875
4.500;4.383445;2.169662
4.510;4.390230;2.175022
4.520;4.387549;2.180198
4.530;4.374939;2.185304
4.540;4.352100;2.190239
4.550;4.319000;2.194741
4.560;4.275948;2.198517
4.570;4.223561;2.201412
4.580;4.162621;2.203513
4.590;4.093883;2.205151
4.600;4.017952;2.206804
4.610;3.935283;2.208967
4.620;3.846343;2.212083
4.630;3.751892;2.216591
4.640;3.653314;2.223098
4.650;3.552867;2.232547
4.660;3.453709;2.246262
4.670;3.359632;2.265769
4.680;3.274525;2.292449
4.690;3.201697;2.327178
4.700;3.143234;2.370112
4.710;3.099591;2.420695
4.720;3.069567;2.477848
4.730;3.050725;2.540247
4.740;3.040118;2.606550
4.750;3.035067;2.675505
4.760;3.033723;2.745956
4.770;3.035225;2.816823
4.780;3.039470;2.887120
4.790;3.046632;2.956036
4.800;3.056652;3.023031
4.810;3.068895;3.087883
4.820;3.082050;3.150680
4.830;3.094308;3.211730
4.840;3.103725;3.271410
4.850;3.108666;3.329961
4.860;3.108167;3.387282
4.870;3.102118;3.442830
4.880;3.091237;3.495686
4.890;3.076870;3.544786
4.900;3.060702;3.589200
4.910;3.044476;3.628328
4.920;3.029745;3.661959
4.930;3.017718;3.690217
4.940;3.009209;3.713441
4.950;3.004720;3.732071
4.960;3.004584;3.746581
4.970;3.009096;3.757480
4.980;3.018562;3.765409
4.990;3.033228;3.771240
5.000;3.053172;3.776098
5.010;3.078245;3.781223
5.020;3.108176;3.787696
5.030;3.142807;3.796144
5.040;3.182366;3.806561
5.050;3.227585;3.818328
5.060;3.279582;3.830413
5.070;3.339470;3.841675
5.080;3.407863;3.851194
5.090;3.484482;3.858553
5.100;3.568045;3.863996
5.110;3.656468;3.868375
5.120;3.747258;3.872860
5.130;3.837899;3.878510
5.140;3.926114;3.885871
5.150;4.010015;3.894809
5.160;4.088177;3.904626
5.170;4.159692;3.914369
5.180;4.224195;3.923145
5.190;4.281810;3.930316
5.200;4.333024;3.935524
5.210;4.378494;3.938640
5.220;4.418855;3.939687
5.230;4.454580;3.938810
5.240;4.485902;3.936248
5.250;4.512820;3.932278
5.260;4.535162;3.927135
5.270;4.552682;3.920967
5.280;4.565165;3.913873
5.290;4.572530;3.905991
5.300;4.574939;3.897601
5.310;4.572897;3.889193
5.320;4.567337;3.881459
5.330;4.559620;3.875209
5.340;4.551424;3.871187
5.350;4.544535;3.869821
5.360;4.540565;3.871026
5.370;4.540699;3.874161
5.380;4.545514;3.878209
5.390;4.554962;3.882108
5.400;4.568482;3.885117
5.410;4.585250;3.887030
5.420;4.604441;3.888169
5.430;4.625456;3.889150
5.440;4.648022;3.890519
5.450;4.672191;3.892431
5.460;4.698275;3.894503
5.470;4.726768;3.895885
5.480;4.758244;3.895502
5.490;4.793203;3.892372
5.500;4.831854;3.885849
5.510;4.873903;3.875725
5.520;4.918456;3.862169
5.530;4.964086;3.845589
5.540;5.009037;3.826492
5.550;5.051466;3.805378
5.560;5.089663;3.782665
5.570;5.122207;3.758607
5.580;5.148070;3.733221
5.590;5.166646;3.706237
5.600;5.177726;3.677097
5.610;5.181396;3.645009
5.620;5.177918;3.609039
5.630;5.167621;3.568224
5.640;5.150834;3.521689
5.650;5.127863;3.468772
5.660;5.098958;3.409143
5.670;5.064294;3.342896
5.680;5.023955;3.270620
5.690;4.977968;3.193428
5.700;4.926424;3.112944
5.710;4.869709;3.031215
5.720;4.808788;2.950543
5.730;4.745415;2.873267
5.740;4.682081;2.801556
5.750;4.621671;2.737234
5.760;4.566889;2.681672
5.770;4.519704;2.635742
5.780;4.481071;2.599833
5.790;4.451038;2.573920
5.800;4.429165;2.557628
5.810;4.415002;2.550216
5.820;4.408377;2.550485
5.830;4.409400;2.556696
5.840;4.418276;2.566623
5.850;4.435090;2.577810
5.860;4.459645;2.587998
5.870;4.491370;2.595577
5.880;4.529259;2.599895
5.890;4.571831;2.601312
5.900;4.617198;2.601011
5.910;4.663264;2.600614
5.920;4.708072;2.601746
5.930;4.750174;2.605641
5.940;4.788877;2.612857
5.950;4.824251;2.623187
5.960;4.856858;2.635780
5.970;4.887317;2.649458
5.980;4.915867;2.663104
5.990;4.942082;2.675990
6.000;4.964858;2.687914
6.010;4.982632;2.699165
6.020;4.993774;2.710371
6.030;4.997014;2.722342
6.040;4.991778;2.735965
6.050;4.978350;2.752137
6.060;4.957803;2.771716
6.070;4.931753;2.795454
6.080;4.901976;2.823878
6.090;4.870010;2.857163
6.100;4.836846;2.895061
6.110;4.802770;2.936936
6.120;4.767433;2.981918
6.130;4.730122;3.029120
6.140;4.690180;3.077829
6.150;4.647395;3.127602
6.160;4.602230;3.178220
6.170;4.555792;3.229507
6.180;4.509553;3.281087
6.190;4.464940;3.332180
6.200;4.422945;3.381530
6.210;4.383861;3.427538
6.220;4.347224;3.468549
6.230;4.311953;3.503215
6.240;4.276647;3.530774
6.250;4.239960;3.551125
6.260;4.200972;3.564680
6.270;4.159425;3.572058
6.280;4.115758;3.573772
6.290;4.070890;3.570040
6.300;4.025841;3.560763
6.310;3.981320;3.545656
6.320;3.937465;3.524461
6.330;3.893856;3.497170
6.340;3.849816;3.464177
6.350;3.804903;3.426258
6.360;3.759423;3.384394
6.370;3.714778;3.339529
6.380;3.673487;3.292387
6.390;3.638778;3.243425
6.400;3.613824;3.192887
6.410;3.600836;3.140911
6.420;3.600375;3.087627
6.430;3.611187;3.033246
6.440;3.630622;2.978150
6.450;3.655451;2.922942
6.460;3.682713;2.868427
6.470;3.710295;2.815481
6.480;3.737105;2.764869
6.490;3.762899;2.717089
6.500;3.787927;2.672305
6.510;3.812567;2.630390
6.520;3.837012;2.591021
6.530;3.861048;2.553788
6.540;3.883933;2.518246
6.550;3.904410;2.483934
6.560;3.920837;2.450389
6.570;3.931439;2.417213
6.580;3.934620;2.384141
6.590;3.929267;2.351058
6.600;3.914945;2.317913
6.610;3.891942;2.284598
6.620;3.861153;2.250822
6.630;3.823880;2.216051
6.640;3.781635;2.179517
6.650;3.736028;2.140303
6.660;3.688767;2.097509
6.670;3.641749;2.050518
6.680;3.597165;1.999293
6.690;3.557507;1.944609
6.700;3.525376;1.888080
6.710;3.503090;1.831888
6.720;3.492215;1.778262
6.730;3.493205;1.728895
6.740;3.505346;1.684523
6.750;3.527080;1.644838
6.760;3.556580;1.608735
6.770;3.592343;1.574780
6.780;3.633565;1.541691
6.790;3.680146;1.508681
6.800;3.732378;1.475555
6.810;3.790446;1.442572
6.820;3.853964;1.410165
6.830;3.921732;1.378708
6.840;3.991771;1.348431
6.850;4.061616;1.319506
6.860;4.128719;1.292180
6.870;4.190796;1.266838
6.880;4.246008;1.243933
6.890;4.292979;1.223817
6.900;4.330748;1.206578
6.910;4.358761;1.191980
6.920;4.376946;1.179534
6.930;4.385796;1.168670
6.940;4.386372;1.158937
6.950;4.380166;1.150181
6.960;4.368856;1.142599
6.970;4.354029;1.136654
6.980;4.336961;1.132878
6.990;4.318525;1.131623
7.000;4.299217;1.132894
7.010;4.279236;1.136320
7.020;4.258559;1.141282
7.030;4.236994;1.147147
7.040;4.214252;1.153477
7.050;4.190045;1.160149
7.060;4.164206;1.167302
7.070;4.136820;1.175152
7.080;4.108342;1.183760
7.090;4.079689;1.192866
7.100;4.052228;1.201853
7.110;4.027586;1.209896
7.120;4.007275;1.216226
7.130;3.992229;1.220430
7.140;3.982441;1.222643
7.150;3.976883;1.223520
7.160;3.973783;1.224022
7.170;3.971161;1.225121
7.180;3.967425;1.227550
7.190;3.961821;1.231655
7.200;3.954596;1.237367
7.210;3.946832;1.244264
7.220;3.940037;1.251700
7.230;3.935616;1.258930
7.240;3.934398;1.265223
7.250;3.936361;1.269951
7.260;3.940610;1.272686
7.270;3.945616;1.273325
7.280;3.949604;1.272241
7.290;3.951003;1.270374
7.300;3.948812;1.269201
7.310;3.942789;1.270500
7.320;3.933414;1.275952
7.330;3.921666;1.286713
7.340;3.908718;1.303114
7.350;3.895647;1.324623
7.360;3.883213;1.350112
7.370;3.871726;1.378349
7.380;3.860988;1.408539
7.390;3.850365;1.440691
7.400;3.838974;1.475641
7.410;3.825965;1.514744
7.420;3.810826;1.559373
7.430;3.793598;1.610429
7.440;3.774924;1.668061
7.450;3.755895;1.731637
7.460;3.737743;1.799939
7.470;3.721500;1.871450
7.480;3.707737;1.944617
7.490;3.696446;2.018035
7.500;3.687102;2.090537
7.510;3.678838;2.161243
7.520;3.670649;2.229586
7.530;3.661531;2.295317
7.540;3.650515;2.358462
7.550;3.636647;2.419204
7.560;3.618979;2.477723
7.570;3.596649;2.534049
7.580;3.569035;2.587983
7.590;3.535894;2.639120
7.600;3.497456;2.686978
7.610;3.454408;2.731143
7.620;3.407803;2.771354
7.630;3.358880;2.807485
7.640;3.308881;2.839458
7.650;3.258893;2.867161
7.660;3.209799;2.890458
7.670;3.162308;2.909298
7.680;3.117047;2.923896
7.690;3.074625;2.934844
7.700;3.035680;2.943076
7.710;3.000878;2.949663
7.720;2.970880;2.955557
7.730;2.946273;2.961395
7.740;2.927460;2.967441
7.750;2.914556;2.973629
7.760;2.907328;2.979663
7.770;2.905232;2.985098
7.780;2.907550;2.989392
7.790;2.913576;2.991967
7.800;2.922773;2.992296
7.810;2.934811;2.990025
7.820;2.949488;2.985095
7.830;2.966581;2.977761
7.840;2.985708;2.968524
7.850;3.006291;2.957973
7.860;3.027617;2.946624
7.870;3.048946;2.934842
7.880;3.069617;2.922855
7.890;3.089094;2.910865
7.900;3.106995;2.899195
7.910;3.123120;2.888389
7.920;3.137465;2.879186
7.930;3.150206;2.872358
7.940;3.161625;2.868489
7.950;3.172011;2.867781
7.960;3.181570;2.869987
7.970;3.190373;2.874484
7.980;3.198360;2.880459
7.990;3.205362;2.887130
8.000;3.211155;2.893940
8.010;3.215485;2.900663
8.020;3.218109;2.907437
8.030;3.218849;2.914688
8.040;3.217693;2.922994
8.050;3.214927;2.932898
8.060;3.211237;2.944731
8.070;3.207721;2.958488
8.080;3.205745;2.973795
8.090;3.206697;2.989991
8.100;3.211672;3.006312
8.110;3.221217;3.022096
8.120;3.235201;3.036924
8.130;3.252852;3.050635
8.140;3.272960;3.063217
8.150;3.294167;3.074656
8.160;3.315280;3.084805
8.170;3.335531;3.093312
8.180;3.354720;3.099637
8.190;3.373210;3.103168
8.200;3.391755;3.103413
8.210;3.411185;3.100209
8.220;3.432057;3.093850
8.230;3.454424;3.085092
8.240;3.477791;3.074996
8.250;3.501251;3.064657
8.260;3.523690;3.054900
8.270;3.543961;3.046052
8.280;3.561010;3.037898
8.290;3.573954;3.029831
8.300;3.582154;3.021145
8.310;3.585292;3.011324
8.320;3.583465;3.000218
