Time[s];COPx[cm];COPy[cm]
0.010;1.513751;-2.032034
0.020;1.509353;-2.108191
0.030;1.495759;-2.184388
0.040;1.465536;-2.260194
0.050;1.414102;-2.334826
0.060;1.340399;-2.407017
0.070;1.246809;-2.475035
0.080;1.138379;-2.536883
0.090;1.021514;-2.590671
0.100;0.902429;-2.635004
0.110;0.785806;-2.669168
0.120;0.674061;-2.693028
0.130;0.567494;-2.706719
0.140;0.465155;-2.710388
0.150;0.366012;-2.704169
0.160;0.269896;-2.688478
0.170;0.177878;-2.664485
0.180;0.092021;-2.634561
0.190;0.014665;-2.602461
0.200;-0.052397;-2.573114
0.210;-0.108496;-2.552014
0.220;-0.154174;-2.544393
0.230;-0.190781;-2.554410
0.240;-0.219770;-2.584547
0.250;-0.242040;-2.635286
0.260;-0.257597;-2.705047
0.270;-0.265648;-2.790343
0.280;-0.265029;-2.886167
0.290;-0.254754;-2.986556
0.300;-0.234429;-3.085295
0.310;-0.204437;-3.176613
0.320;-0.165908;-3.255767
0.330;-0.120534;-3.319388
0.340;-0.070335;-3.365596
0.350;-0.017422;-3.393900
0.360;0.036206;-3.405011
0.370;0.088804;-3.400628
0.380;0.138953;-3.383272
0.390;0.185552;-3.356136
0.400;0.227702;-3.322904
0.410;0.264535;-3.287443
0.420;0.295042;-3.253362
0.430;0.318006;-3.223517
0.440;0.332087;-3.199639
0.450;0.336050;-3.182227
0.460;0.329026;-3.170715
0.470;0.310714;-3.163822
0.480;0.281406;-3.159893
0.490;0.241810;-3.157155
0.500;0.192739;-3.153871
0.510;0.134819;-3.148485
0.520;0.068394;-3.139830
0.530;-0.006263;-3.127383
0.540;-0.088488;-3.111447
0.550;-0.176712;-3.093138
0.560;-0.268180;-3.074114
0.570;-0.359057;-3.056117
0.580;-0.444978;-3.040487
0.590;-0.521873;-3.027869
0.600;-0.586856;-3.018197
0.610;-0.638862;-3.010963
0.620;-0.678838;-3.005596
0.630;-0.709410;-3.001739
0.640;-0.734173;-2.999304
0.650;-0.756826;-2.998275
0.660;-0.780415;-2.998402
0.670;-0.806824;-2.998972
0.680;-0.836591;-2.998822
0.690;-0.869058;-2.996633
0.700;-0.902795;-2.991377
0.710;-0.936168;-2.982687
0.720;-0.967853;-2.970956
0.730;-0.997129;-2.957110
0.740;-1.023871;-2.942206
0.750;-1.048334;-2.927031
0.760;-1.070866;-2.911856
0.770;-1.091713;-2.896372
0.780;-1.110994;-2.879805
0.790;-1.128822;-2.861148
0.800;-1.145469;-2.839488
0.810;-1.161446;-2.814359
0.820;-1.177429;-2.786049
0.830;-1.194027;-2.755772
0.840;-1.211503;-2.725610
0.850;-1.229528;-2.698201
0.860;-1.247109;-2.676198
0.870;-1.262781;-2.661609
0.880;-1.275036;-2.655213
0.890;-1.282865;-2.656261
0.900;-1.286147;-2.662634
0.910;-1.285678;-2.671386
0.920;-1.282771;-2.679484
0.930;-1.278611;-2.684425
0.940;-1.273676;-2.684533
0.950;-1.267495;-2.678912
0.960;-1.258848;-2.667186
0.970;-1.246270;-2.649302
0.980;-1.228621;-2.625531
0.990;-1.205439;-2.596668
1.000;-1.176925;-2.564253
1.010;-1.143578;-2.530605
1.020;-1.105706;-2.498529
1.030;-1.063104;-2.470743
1.040;-1.015081;-2.449216
1.050;-0.960829;-2.434674
1.060;-0.899919;-2.426474
1.070;-0.832685;-2.422934
1.080;-0.760328;-2.421973
1.090;-0.684759;-2.421796
1.100;-0.608244;-2.421367
1.110;-0.533005;-2.420493
1.120;-0.460901;-2.419564
1.130;-0.393297;-2.419075
1.140;-0.331097;-2.419178
1.150;-0.274886;-2.419489
1.160;-0.225053;-2.419274
1.170;-0.181867;-2.417929
1.180;-0.145523;-2.415507
1.190;-0.116238;-2.412982
1.200;-0.094379;-2.412067
1.210;-0.080566;-2.414641
1.220;-0.075627;-2.422064
1.230;-0.080369;-2.434667
1.240;-0.095228;-2.451643
1.250;-0.119954;-2.471305
1.260;-0.153508;-2.491567
1.270;-0.194226;-2.510422
1.280;-0.240214;-2.526281
1.290;-0.289794;-2.538143
1.300;-0.341814;-2.545614
1.310;-0.395672;-2.548842
1.320;-0.451072;-2.548393
1.330;-0.507644;-2.545084
1.340;-0.564639;-2.539782
1.350;-0.620856;-2.533150
1.360;-0.674826;-2.525395
1.370;-0.725164;-2.516078
1.380;-0.770952;-2.504114
1.390;-0.811992;-2.487998
1.400;-0.848832;-2.466223
1.410;-0.882547;-2.437742
1.420;-0.914380;-2.402302
1.430;-0.945374;-2.360543
1.440;-0.976145;-2.313878
1.450;-1.006830;-2.264283
1.460;-1.037233;-2.214112
1.470;-1.067042;-2.165974
1.480;-1.096016;-2.122587
1.490;-1.124037;-2.086505
1.500;-1.151057;-2.059690
1.510;-1.177018;-2.043044
1.520;-1.201867;-2.036120
1.530;-1.225652;-2.037185
1.540;-1.248658;-2.043685
1.550;-1.271438;-2.052941
1.560;-1.294700;-2.062820
1.570;-1.319050;-2.072118
1.580;-1.344687;-2.080551
1.590;-1.371187;-2.088390
1.600;-1.397496;-2.095963
1.610;-1.422163;-2.103258
1.620;-1.443758;-2.109797
1.630;-1.461327;-2.114808
1.640;-1.474690;-2.117545
1.650;-1.484448;-2.117557
1.660;-1.491663;-2.114754
1.670;-1.497375;-2.109291
1.680;-1.502132;-2.101405
1.690;-1.505763;-2.091344
1.700;-1.507497;-2.079451
1.710;-1.506383;-2.066371
1.720;-1.501811;-2.053234
1.730;-1.493898;-2.041661
1.740;-1.483536;-2.033539
1.750;-1.472117;-2.030600
1.760;-1.461055;-2.033965
1.770;-1.451364;-2.043805
1.780;-1.443446;-2.059218
1.790;-1.437188;-2.078421
1.800;-1.432274;-2.099189
1.810;-1.428549;-2.119430
1.820;-1.426231;-2.137673
1.830;-1.425842;-2.153280
1.840;-1.427911;-2.166288
1.850;-1.432608;-2.177000
1.860;-1.439494;-2.185572
1.870;-1.447510;-2.191848
1.880;-1.455186;-2.195510
1.890;-1.460974;-2.196431
1.900;-1.463596;-2.195005
1.910;-1.462270;-2.192245
1.920;-1.456759;-2.189566
1.930;-1.447237;-2.188328
1.940;-1.434041;-2.189335
1.950;-1.417410;-2.192559
1.960;-1.397310;-2.197232
1.970;-1.373375;-2.202275
1.980;-1.344949;-2.206844
1.990;-1.311210;-2.210712
2.000;-1.271353;-2.214301
2.010;-1.224801;-2.218356
2.020;-1.171394;-2.223425
2.030;-1.111535;-2.229345
2.040;-1.046233;-2.234941
2.050;-0.977011;-2.238064
2.060;-0.905673;-2.235999
2.070;-0.833980;-2.226181
2.080;-0.763332;-2.207010
2.090;-0.694589;-2.178488
2.100;-0.628103;-2.142413
2.110;-0.563947;-2.102050
2.120;-0.502241;-2.061343
2.130;-0.443419;-2.023965
2.140;-0.388324;-1.992540
2.150;-0.338086;-1.968305
2.160;-0.293862;-1.951274
2.170;-0.256521;-1.940742
2.180;-0.226390;-1.935883
2.190;-0.203148;-1.936153
2.200;-0.185863;-1.941388
2.210;-0.173167;-1.951627
2.220;-0.163480;-1.966785
2.230;-0.155244;-1.986366
2.240;-0.147118;-2.009344
2.250;-0.138140;-2.034229
2.260;-0.127806;-2.059292
2.270;-0.116058;-2.082810
2.280;-0.103168;-2.103264
2.290;-0.089564;-2.119459
2.300;-0.075664;-2.130612
2.310;-0.061772;-2.136413
2.320;-0.048098;-2.137080
2.330;-0.034903;-2.133313
2.340;-0.022690;-2.126181
2.350;-0.012306;-2.116921
2.360;-0.004871;-2.106749
2.370;-0.001529;-2.096714
2.380;-0.003155;-2.087613
2.390;-0.010174;-2.079977
2.400;-0.022611;-2.074102
2.410;-0.040338;-2.070096
2.420;-0.063362;-2.067896
2.430;-0.091949;-2.067242
2.440;-0.126446;-2.067688
2.450;-0.166865;-2.068717
2.460;-0.212443;-2.069943
2.470;-0.261468;-2.071310
2.480;-0.311494;-2.073158
2.490;-0.359853;-2.076074
2.500;-0.404235;-2.080554
2.510;-0.443089;-2.086601
2.520;-0.475705;-2.093453
2.530;-0.502031;-2.099600
2.540;-0.522348;-2.103126
2.550;-0.536960;-2.102252
2.560;-0.545980;-2.095867
2.570;-0.549249;-2.083841
2.580;-0.546401;-2.067002
2.590;-0.537053;-2.046832
2.600;-0.521086;-2.025008
2.610;-0.498859;-2.002966
2.620;-0.471292;-1.981631
2.630;-0.439716;-1.961360
2.640;-0.405572;-1.942101
2.650;-0.370074;-1.923669
2.660;-0.333979;-1.905993
2.670;-0.297570;-1.889217
2.680;-0.260810;-1.873569
2.690;-0.223585;-1.859094
2.700;-0.185885;-1.845417
2.710;-0.147871;-1.831719
2.720;-0.109829;-1.816998
2.730;-0.072048;-1.800503
2.740;-0.034653;-1.782106
2.750;0.002553;-1.762422
2.760;0.040179;-1.742593
2.770;0.079179;-1.723828
2.780;0.120614;-1.706927
2.790;0.165294;-1.692021
2.800;0.213480;-1.678637
2.810;0.264777;-1.666031
2.820;0.318276;-1.653598
2.830;0.372864;-1.641158
2.840;0.427559;-1.629029
2.850;0.481720;-1.617862
2.860;0.535093;-1.608319
2.870;0.587671;-1.600754
2.880;0.639464;-1.595039
2.890;0.690259;-1.590650
2.900;0.739484;-1.586969
2.910;0.786234;-1.583644
2.920;0.829450;-1.580795
2.930;0.868172;-1.578997
2.940;0.901737;-1.579045
2.950;0.929842;-1.581686
2.960;0.952448;-1.587439
2.970;0.969599;-1.596588
2.980;0.981256;-1.609318
2.990;0.987250;-1.625846
3.000;0.987364;-1.646414
3.010;0.981498;-1.671079
3.020;0.969820;-1.699397
3.030;0.952817;-1.730165
3.040;0.931192;-1.761405
3.050;0.905662;-1.790662
3.060;0.876744;-1.815549
3.070;0.844686;-1.834332
3.080;0.809576;-1.846281
3.090;0.771604;-1.851655
3.100;0.731302;-1.851346
3.110;0.689640;-1.846348
3.120;0.647917;-1.837273
3.130;0.607496;-1.824090
3.140;0.569510;-1.806194
3.150;0.534648;-1.782766
3.160;0.503125;-1.753288
3.170;0.474810;-1.717988
3.180;0.449462;-1.678030
3.190;0.426968;-1.635344
3.200;0.407467;-1.592151
3.210;0.391319;-1.550343
3.220;0.378914;-1.511000
3.230;0.370411;-1.474275
3.240;0.365542;-1.439699
3.250;0.363553;-1.406747
3.260;0.363339;-1.375359
3.270;0.363663;-1.346125
3.280;0.363392;-1.320059
3.290;0.361630;-1.298092
3.300;0.357762;-1.280531
3.310;0.351420;-1.266766
3.320;0.342415;-1.255337
3.330;0.330679;-1.244352
3.340;0.316222;-1.232092
3.350;0.299146;-1.217582
3.360;0.279705;-1.200902
3.370;0.258411;-1.183154
3.380;0.236106;-1.166095
3.390;0.213948;-1.151615
3.400;0.193225;-1.141240
3.410;0.175063;-1.135842
3.420;0.160097;-1.135580
3.430;0.148291;-1.140031
3.440;0.138983;-1.148381
3.450;0.131138;-1.159571
3.460;0.123686;-1.172393
3.470;0.115806;-1.185609
3.480;0.107043;-1.198172
3.490;0.097246;-1.209526
3.500;0.086383;-1.219848
3.510;0.074302;-1.230051
3.520;0.060518;-1.241479
3.530;0.044078;-1.255373
3.540;0.023557;-1.272317
3.550;-0.002796;-1.291861
3.560;-0.036770;-1.312477
3.570;-0.079828;-1.331878
3.580;-0.132732;-1.347673
3.590;-0.195283;-1.358206
3.600;-0.266262;-1.363285
3.610;-0.343675;-1.364490
3.620;-0.425279;-1.364844
3.630;-0.509246;-1.367909
3.640;-0.594715;-1.376696
3.650;-0.681956;-1.392852
3.660;-0.772015;-1.416434
3.670;-0.865923;-1.446264
3.680;-0.963734;-1.480527
3.690;-1.063798;-1.517300
3.700;-1.162631;-1.554823
3.710;-1.255562;-1.591547
3.720;-1.338028;-1.626115
3.730;-1.406985;-1.657402
3.740;-1.461815;-1.684659
3.750;-1.504293;-1.707685
3.760;-1.537686;-1.726895
3.770;-1.565444;-1.743162
3.780;-1.590104;-1.757456
3.790;-1.612785;-1.770407
3.800;-1.633359;-1.781985
3.810;-1.651108;-1.791478
3.820;-1.665503;-1.797779
3.830;-1.676798;-1.799889
3.840;-1.686203;-1.797396
3.850;-1.695655;-1.790707
3.860;-1.707376;-1.780881
3.870;-1.723433;-1.769134
3.880;-1.745463;-1.756271
3.890;-1.774554;-1.742323
3.900;-1.811190;-1.726573
3.910;-1.855212;-1.707946
3.920;-1.905814;-1.685553
3.930;-1.961620;-1.659132
3.940;-2.020878;-1.629213
3.950;-2.081715;-1.597010
3.960;-2.142386;-1.564156
3.970;-2.201425;-1.532410
3.980;-2.257699;-1.503422
3.990;-2.310387;-1.478556
4.000;-2.358944;-1.458770
4.010;-2.403069;-1.444521
4.020;-2.442672;-1.435709
4.030;-2.477807;-1.431682
4.040;-2.508583;-1.431386
4.050;-2.535062;-1.433674
4.060;-2.557183;-1.437708
4.070;-2.574771;-1.443279
4.080;-2.587661;-1.450910
4.090;-2.595945;-1.461653
4.100;-2.600252;-1.476676
4.110;-2.601911;-1.496779
4.120;-2.602881;-1.522049
4.130;-2.605405;-1.551798
4.140;-2.611519;-1.584829
4.150;-2.622599;-1.619942
4.160;-2.639149;-1.656391
4.170;-2.660872;-1.694050
4.180;-2.686947;-1.733106
4.190;-2.716346;-1.773417
4.200;-2.748054;-1.813846
4.210;-2.781160;-1.851955
4.220;-2.814889;-1.884240
4.230;-2.848656;-1.906866
4.240;-2.882151;-1.916587
4.250;-2.915385;-1.911494
4.260;-2.948616;-1.891326
4.270;-2.982133;-1.857288
4.280;-3.016004;-1.811534
4.290;-3.049907;-1.756556
4.300;-3.083176;-1.694732
4.310;-3.115069;-1.628129
4.320;-3.145130;-1.558565
4.330;-3.173434;-1.487813
4.340;-3.200520;-1.417780
4.350;-3.227033;-1.350597
4.360;-3.253282;-1.288583
4.370;-3.279004;-1.234056
4.380;-3.303493;-1.189044
4.390;-3.326018;-1.154915
4.400;-3.346259;-1.132049
4.410;-3.364509;-1.119647
4.420;-3.381541;-1.115742
4.430;-3.398243;-1.117499
4.440;-3.415207;-1.121773
4.450;-3.432477;-1.125795
4.460;-3.449551;-1.127728
4.470;-3.465618;-1.126834
4.480;-3.479898;-1.123216
4.490;-3.491900;-1.117287
4.500;-3.501501;-1.109273
4.510;-3.508817;-1.098938
4.520;-3.513980;-1.085623
4.530;-3.516925;-1.068494
4.540;-3.517295;-1.046832
4.550;-3.514504;-1.020236
4.560;-3.507992;-0.988699
4.570;-3.497544;-0.952583
4.580;-3.483564;-0.912568
4.590;-3.467144;-0.869563
4.600;-3.449886;-0.824646
4.610;-3.433506;-0.779040
4.620;-3.419362;-0.734160
4.630;-3.408101;-0.691723
4.640;-3.399566;-0.653850
4.650;-3.393018;-0.623068
4.660;-3.387535;-0.602066
4.670;-3.382376;-0.593169
4.680;-3.377136;-0.597652
4.690;-3.371627;-0.615166
4.700;-3.365639;-0.643595
4.710;-3.358806;-0.679494
4.720;-3.350731;-0.718968
4.730;-3.341308;-0.758633
4.740;-3.331006;-0.796239
4.750;-3.320881;-0.830758
4.760;-3.312244;-0.861968
4.770;-3.306111;-0.889799
4.780;-3.302701;-0.913793
4.790;-3.301228;-0.932924
4.800;-3.300117;-0.945882
4.810;-3.297566;-0.951674
4.820;-3.292196;-0.950264
4.830;-3.283518;-0.942932
4.840;-3.272019;-0.932192
4.850;-3.258872;-0.921276
4.860;-3.245429;-0.913420
4.870;-3.232770;-0.911226
4.880;-3.221497;-0.916336
4.890;-3.211819;-0.929469
4.900;-3.203805;-0.950719
4.910;-3.197611;-0.979868
4.920;-3.193519;-1.016497
4.930;-3.191763;-1.059829
4.940;-3.192244;-1.108428
4.950;-3.194266;-1.160028
4.960;-3.196465;-1.211678
4.970;-3.196949;-1.260284
4.980;-3.193636;-1.303332
4.990;-3.184666;-1.339532
5.000;-3.168765;-1.369104
5.010;-3.145458;-1.393620
5.020;-3.115068;-1.415505
5.030;-3.078492;-1.437434
5.040;-3.036830;-1.461830
5.050;-2.990994;-1.490528
5.060;-2.941473;-1.524574
5.070;-2.888334;-1.564050
5.080;-2.831470;-1.607975
5.090;-2.770987;-1.654377
5.100;-2.707559;-1.700645
5.110;-2.642586;-1.744139
5.120;-2.578063;-1.782908
5.130;-2.516195;-1.816212
5.140;-2.458929;-1.844652
5.150;-2.407598;-1.869814
5.160;-2.362806;-1.893609
5.170;-2.324569;-1.917584
5.180;-2.292620;-1.942490
5.190;-2.266696;-1.968266
5.200;-2.246685;-1.994414
5.210;-2.232549;-2.020548
5.220;-2.224093;-2.046826
5.230;-2.220700;-2.074062
5.240;-2.221193;-2.103480
5.250;-2.223887;-2.136268
5.260;-2.226843;-2.173147
5.270;-2.228196;-2.214161
5.280;-2.226457;-2.258734
5.290;-2.220672;-2.305936
5.300;-2.210414;-2.354820
5.310;-2.195650;-2.404712
5.320;-2.176561;-2.455345
5.330;-2.153400;-2.506824
5.340;-2.126417;-2.559460
5.350;-2.095829;-2.613594
5.360;-2.061773;-2.669444
5.370;-2.024235;-2.727009
5.380;-1.983012;-2.786007
5.390;-1.937764;-2.845820
5.400;-1.888179;-2.905470
5.410;-1.834177;-2.963619
5.420;-1.776097;-3.018595
5.430;-1.714754;-3.068468
5.440;-1.651377;-3.111193
5.450;-1.587468;-3.144866
5.460;-1.524647;-3.168047
5.470;-1.464560;-3.180124
5.480;-1.408802;-3.181585
5.490;-1.358833;-3.174113
5.500;-1.315860;-3.160371
5.510;-1.280741;-3.143484
5.520;-1.253953;-3.126364
5.530;-1.235636;-3.111116
5.540;-1.225657;-3.098769
5.550;-1.223651;-3.089366
5.560;-1.229003;-3.082309
5.570;-1.240848;-3.076765
5.580;-1.258165;-3.071990
5.590;-1.279980;-3.067547
5.600;-1.305643;-3.063402
5.610;-1.335022;-3.059937
5.620;-1.368451;-3.057878
5.630;-1.406371;-3.058137
5.640;-1.448781;-3.061585
5.650;-1.494763;-3.068809
5.660;-1.542342;-3.079928
5.670;-1.588811;-3.094520
5.680;-1.631423;-3.111689
5.690;-1.668152;-3.130266
5.700;-1.698194;-3.149060
5.710;-1.721999;-3.167057
5.720;-1.740856;-3.183498
5.730;-1.756251;-3.197819
5.740;-1.769319;-3.209488
5.750;-1.780618;-3.217830
5.760;-1.790294;-3.221935
5.770;-1.798509;-3.220685
5.780;-1.805889;-3.212927
5.790;-1.813706;-3.197725
5.800;-1.823679;-3.174628
5.810;-1.837463;-3.143903
5.820;-1.856075;-3.106664
5.830;-1.879536;-3.064913
5.840;-1.906912;-3.021434
5.850;-1.936663;-2.979511
5.860;-1.967157;-2.942409
5.870;-1.997117;-2.912692
5.880;-2.025874;-2.891564
5.890;-2.053374;-2.878515
5.900;-2.079963;-2.871450
5.910;-2.106053;-2.867275
5.920;-2.131820;-2.862712
5.930;-2.157041;-2.855055
5.940;-2.181125;-2.842646
5.950;-2.203313;-2.824968
5.960;-2.222962;-2.802423
5.970;-2.239788;-2.775966
5.980;-2.253946;-2.746769
5.990;-2.265958;-2.716014
6.000;-2.276547;-2.684806
6.010;-2.286475;-2.654164
6.020;-2.296449;-2.625027
6.030;-2.307050;-2.598284
6.040;-2.318646;-2.574824
6.050;-2.331271;-2.555588
6.060;-2.344521;-2.541549
6.070;-2.357545;-2.533592
6.080;-2.369220;-2.532297
6.090;-2.378463;-2.537707
6.100;-2.384577;-2.549152
6.110;-2.387475;-2.565164
6.120;-2.387676;-2.583545
6.130;-2.386095;-2.601599
6.140;-2.383730;-2.616550
6.150;-2.381404;-2.626084
6.160;-2.379631;-2.628906
6.170;-2.378624;-2.625110
6.180;-2.378358;-2.616174
6.190;-2.378644;-2.604525
6.200;-2.379132;-2.592795
6.210;-2.379310;-2.583048
6.220;-2.378515;-2.576260
6.230;-2.376043;-2.572237
6.240;-2.371348;-2.569921
6.250;-2.364275;-2.567894
6.260;-2.355225;-2.564867
6.270;-2.345127;-2.559982
6.280;-2.335197;-2.552873
6.290;-2.326552;-2.543556
6.300;-2.319849;-2.532219
6.310;-2.315093;-2.519032
6.320;-2.311649;-2.503996
6.330;-2.308400;-2.486920
6.340;-2.303992;-2.467533
6.350;-2.297093;-2.445771
6.360;-2.286659;-2.422100
6.370;-2.272111;-2.397726
6.380;-2.253377;-2.374504
6.390;-2.230719;-2.354529
6.400;-2.204443;-2.339541
6.410;-2.174645;-2.330390
6.420;-2.141150;-2.326769
6.430;-2.103695;-2.327326
6.440;-2.062237;-2.330094
6.450;-2.017210;-2.333104
6.460;-1.969557;-2.334990
6.470;-1.920528;-2.335389
6.480;-1.871353;-2.335040
6.490;-1.822951;-2.335535
6.500;-1.775821;-2.338793
6.510;-1.730132;-2.346402
6.520;-1.685960;-2.359024
6.530;-1.643533;-2.376052
6.540;-1.603331;-2.395634
6.550;-1.566013;-2.415105
6.560;-1.532229;-2.431680
6.570;-1.502419;-2.443187
6.580;-1.476720;-2.448560
6.590;-1.455015;-2.447910
6.600;-1.437097;-2.442211
6.610;-1.422852;-2.432788
6.620;-1.412381;-2.420844
6.630;-1.405997;-2.407196
6.640;-1.404104;-2.392254
6.650;-1.407011;-2.376182
6.660;-1.414746;-2.359153
6.670;-1.426939;-2.341571
6.680;-1.442865;-2.324154
6.690;-1.461645;-2.307800
6.700;-1.482545;-2.293259
6.710;-1.505248;-2.280748
6.720;-1.529943;-2.269720
6.730;-1.557165;-2.258944
6.740;-1.587428;-2.246879
6.750;-1.620789;-2.232198
6.760;-1.656534;-2.214235
6.770;-1.693132;-2.193223
6.780;-1.728472;-2.170243
6.790;-1.760331;-2.146925
6.800;-1.786926;-2.124954
6.810;-1.807404;-2.105569
6.820;-1.822087;-2.089236
6.830;-1.832405;-2.075631
6.840;-1.840505;-2.063942
6.850;-1.848689;-2.053333
6.860;-1.858871;-2.043348
6.870;-1.872212;-2.034094
6.880;-1.888993;-2.026168
6.890;-1.908682;-2.020380
6.900;-1.930132;-2.017449
6.910;-1.951836;-2.017763
6.920;-1.972193;-2.021286
6.930;-1.989777;-2.027597
6.940;-2.003577;-2.036032
6.950;-2.013183;-2.045866
6.960;-2.018846;-2.056475
6.970;-2.021351;-2.067472
6.980;-2.021717;-2.078798
6.990;-2.020807;-2.090772
7.000;-2.019033;-2.104041
7.010;-2.016244;-2.119399
7.020;-2.011867;-2.137447
7.030;-2.005220;-2.158226
7.040;-1.995861;-2.180979
7.050;-1.983818;-2.204229
7.060;-1.969572;-2.226192
7.070;-1.953854;-2.245386
7.080;-1.937351;-2.261160
7.090;-1.920500;-2.273937
7.100;-1.903450;-2.285032
7.110;-1.886160;-2.296141
7.120;-1.868531;-2.308711
7.130;-1.850460;-2.323505
7.140;-1.831775;-2.340509
7.150;-1.812107;-2.359178
7.160;-1.790799;-2.378822
7.170;-1.766967;-2.398916
7.180;-1.739738;-2.419198
7.190;-1.708595;-2.439538
7.200;-1.673696;-2.459695
7.210;-1.635987;-2.479142
7.220;-1.597057;-2.497088
7.230;-1.558763;-2.512727
7.240;-1.522810;-2.525589
7.250;-1.490457;-2.535743
7.260;-1.462430;-2.543665
7.270;-1.439024;-2.549785
7.280;-1.420286;-2.553968
7.290;-1.406173;-2.555267
7.300;-1.396624;-2.552123
7.310;-1.391537;-2.542964
7.320;-1.390697;-2.526893
7.330;-1.393681;-2.504112
7.340;-1.399790;-2.475886
7.350;-1.408067;-2.444048
7.360;-1.417437;-2.410301
7.370;-1.426943;-2.375603
7.380;-1.435976;-2.339922
7.390;-1.444397;-2.302422
7.400;-1.452459;-2.261967
7.410;-1.460571;-2.217692
7.420;-1.468975;-2.169461
7.430;-1.477486;-2.118084
7.440;-1.485364;-2.065300
7.450;-1.491394;-2.013511
7.460;-1.494129;-1.965316
7.470;-1.492239;-1.922967
7.480;-1.484855;-1.887906
7.490;-1.471803;-1.860512
7.500;-1.453645;-1.840092
7.510;-1.431461;-1.825064
7.520;-1.406474;-1.813249
7.530;-1.379624;-1.802205
7.540;-1.351298;-1.789536
7.550;-1.321259;-1.773142
7.560;-1.288806;-1.751406
7.570;-1.253062;-1.723381
7.580;-1.213320;-1.688957
7.590;-1.169339;-1.648944
7.600;-1.121516;-1.604990
7.610;-1.070883;-1.559308
7.620;-1.018933;-1.514320
7.630;-0.967340;-1.472273
7.640;-0.917668;-1.434943
7.650;-0.871184;-1.403449
7.660;-0.828796;-1.378205
7.670;-0.791091;-1.358986
7.680;-0.758428;-1.345040
7.690;-0.731043;-1.335202
7.700;-0.709151;-1.328012
7.710;-0.693011;-1.321872
7.720;-0.682949;-1.315277
