Time[s];COPx[cm];COPy[cm]
0.010;2.210804;2.021703
0.020;2.240337;2.057371
0.030;2.269283;2.093070
0.040;2.297026;2.128830
0.050;2.323261;2.164980
0.060;2.348028;2.201969
0.070;2.371652;2.240042
0.080;2.394626;2.278986
0.090;2.417517;2.318098
0.100;2.440942;2.356362
0.110;2.465611;2.392712
0.120;2.492387;2.426253
0.130;2.522250;2.456389
0.140;2.556154;2.482879
0.150;2.594811;2.505851
0.160;2.638511;2.525778
0.170;2.687073;2.543423
0.180;2.739985;2.559825
0.190;2.796658;2.576329
0.200;2.856699;2.594606
0.210;2.920062;2.616527
0.220;2.987014;2.643845
0.230;3.057924;2.677775
0.240;3.132975;2.718640
0.250;3.211949;2.765748
0.260;3.294157;2.817499
0.270;3.378561;2.871670
0.280;3.464010;2.925757
0.290;3.549495;2.977339
0.300;3.634311;3.024431
0.310;3.718081;3.065763
0.320;3.800607;3.100905
0.330;3.881646;3.130174
0.340;3.960718;3.154372
0.350;4.037042;3.174479
0.360;4.109632;3.191405
0.370;4.177490;3.205871
0.380;4.239794;3.218395
0.390;4.296000;3.229348
0.400;4.345826;3.239026
0.410;4.389116;3.247662
0.420;4.425642;3.255353
0.430;4.454914;3.261896
0.440;4.476092;3.266653
0.450;4.488044;3.268548
0.460;4.489531;3.266271
0.470;4.479463;3.258626
0.480;4.457129;3.244825
0.490;4.422369;3.224602
0.500;4.375625;3.198087
0.510;4.317904;3.165586
0.520;4.250691;3.127455
0.530;4.175866;3.084189
0.540;4.095651;3.036693
0.550;4.012574;2.986543
0.560;3.929394;2.936017
0.570;3.848954;2.887825
0.580;3.773937;2.844578
0.590;3.706590;2.808191
0.600;3.648516;2.779485
0.610;3.600590;2.758169
0.620;3.563017;2.743241
0.630;3.535428;2.733595
0.640;3.516947;2.728508
0.650;3.506214;2.727786
0.660;3.501394;2.731552
0.670;3.500215;2.739878
0.680;3.500082;2.752489
0.690;3.498313;2.768690
0.700;3.492463;2.787519
0.710;3.480632;2.807970
0.720;3.461620;2.829148
0.730;3.434841;2.850302
0.740;3.400061;2.870804
0.750;3.357089;2.890178
0.760;3.305575;2.908233
0.770;3.245020;2.925255
0.780;3.174966;2.942120
0.790;3.095292;2.960214
0.800;3.006502;2.981124
0.810;2.909887;3.006203
0.820;2.807494;3.036187
0.830;2.701871;3.070985
0.840;2.595662;3.109700
0.850;2.491158;3.150781
0.860;2.389966;3.192223
0.870;2.292870;3.231728
0.880;2.199904;3.266833
0.890;2.110615;3.295044
0.900;2.024377;3.314050
0.910;1.940674;3.321998
0.920;1.859235;3.317793
0.930;1.780007;3.301351
0.940;1.703022;3.273712
0.950;1.628245;3.236927
0.960;1.555490;3.193699
0.970;1.484464;3.146849
0.980;1.414940;3.098762
0.990;1.346992;3.050949
1.000;1.281182;3.003811
1.010;1.218603;2.956644
1.020;1.160728;2.907917
1.030;1.109110;2.855784
1.040;1.065037;2.798717
1.050;1.029276;2.736046
1.060;1.002020;2.668191
1.070;0.983047;2.596488
1.080;0.972060;2.522728
1.090;0.969041;2.448641
1.100;0.974515;2.375598
1.110;0.989608;2.304646
1.120;1.015872;2.236807
1.130;1.054902;2.173400
1.140;1.107832;2.116117
1.150;1.174831;2.066691
1.160;1.254734;2.026256
1.170;1.344965;1.994714
1.180;1.441774;1.970430
1.190;1.540775;1.950442
1.200;1.637615;1.931091
1.210;1.728607;1.908850
1.220;1.811194;1.881076
1.230;1.884136;1.846499
1.240;1.947399;1.805365
1.250;2.001814;1.759260
1.260;2.048661;1.710671
1.270;2.089314;1.662398
1.280;2.125008;1.616936
1.290;2.156714;1.575966
1.300;2.185064;1.540100
1.310;2.210359;1.508953
1.320;2.232655;1.481474
1.330;2.251937;1.456401
1.340;2.268288;1.432681
1.350;2.281954;1.409711
1.360;2.293249;1.387370
1.370;2.302349;1.365866
1.380;2.309124;1.345519
1.390;2.313118;1.326558
1.400;2.313669;1.309001
1.410;2.310079;1.292611
1.420;2.301767;1.276902
1.430;2.288393;1.261223
1.440;2.269948;1.244915
1.450;2.246814;1.227501
1.460;2.219781;1.208808
1.470;2.189969;1.188927
1.480;2.158701;1.168016
1.490;2.127343;1.146083
1.500;2.097204;1.122883
1.510;2.069522;1.098040
1.520;2.045518;1.071307
1.530;2.026435;1.042829
1.540;2.013495;1.013234
1.550;2.007764;0.983493
1.560;2.009987;0.954604
1.570;2.020458;0.927256
1.580;2.039000;0.901624
1.590;2.065012;0.877345
1.600;2.097554;0.853652
1.610;2.135404;0.829594
1.620;2.177091;0.804288
1.630;2.220921;0.777163
1.640;2.265062;0.748122
1.650;2.307659;0.717536
1.660;2.347013;0.686050
1.670;2.381787;0.654286
1.680;2.411240;0.622597
1.690;2.435426;0.590968
1.700;2.455259;0.559110
1.710;2.472384;0.526664
1.720;2.488855;0.493404
1.730;2.506759;0.459349
1.740;2.527892;0.424771
1.750;2.553565;0.390135
1.760;2.584533;0.356022
1.770;2.621000;0.323039
1.780;2.662667;0.291720
1.790;2.708832;0.262420
1.800;2.758521;0.235236
1.810;2.810631;0.209954
1.820;2.864042;0.186017
1.830;2.917687;0.162525
1.840;2.970605;0.138276
1.850;3.021986;0.111895
1.860;3.071233;0.082052
1.870;3.117996;0.047755
1.880;3.162185;0.008639
1.890;3.203970;-0.034870
1.900;3.243771;-0.081622
1.910;3.282211;-0.130026
1.920;3.319978;-0.178458
1.930;3.357622;-0.225612
1.940;3.395355;-0.270640
1.950;3.432938;-0.313066
1.960;3.469745;-0.352532
1.970;3.504962;-0.388570
1.980;3.537883;-0.420515
1.990;3.568137;-0.447614
2.000;3.595799;-0.469205
2.010;3.621338;-0.484820
2.020;3.645479;-0.494133
2.030;3.669039;-0.496828
2.040;3.692780;-0.492499
2.050;3.717284;-0.480669
2.060;3.742890;-0.460904
2.070;3.769703;-0.433016
2.080;3.797729;-0.397266
2.090;3.827068;-0.354511
2.100;3.858063;-0.306176
2.110;3.891287;-0.254030
2.120;3.927358;-0.199812
2.130;3.966659;-0.144827
2.140;4.009092;-0.089656
2.150;4.053963;-0.034069
2.160;4.100038;0.022812
2.170;4.145750;0.082165
2.180;4.189487;0.145055
2.190;4.229882;0.212080
2.200;4.265993;0.283144
2.210;4.297355;0.357408
2.220;4.323943;0.433435
2.230;4.346122;0.509501
2.240;4.364609;0.583989
2.250;4.380433;0.655740
2.260;4.394842;0.724254
2.270;4.409160;0.789686
2.280;4.424603;0.852683
2.290;4.442120;0.914143
2.300;4.462288;0.974989
2.310;4.485310;1.036040
2.320;4.511114;1.097967
2.330;4.539487;1.161292
2.340;4.570182;1.226398
2.350;4.602926;1.293544
2.360;4.637326;1.362858
2.370;4.672753;1.434291
2.380;4.708286;1.507541
2.390;4.742767;1.581996
2.400;4.774946;1.656772
2.410;4.803656;1.730844
2.420;4.827994;1.803187
2.430;4.847412;1.872854
2.440;4.861708;1.939010
2.450;4.870881;2.000971
2.460;4.874946;2.058285
2.470;4.873756;2.110798
2.480;4.866880;2.158663
2.490;4.853496;2.202289
2.500;4.832324;2.242297
2.510;4.801655;2.279516
2.520;4.759585;2.314963
2.530;4.704425;2.349757
2.540;4.635161;2.384959
2.550;4.551775;2.421367
2.560;4.455269;2.459303
2.570;4.347429;2.498437
2.580;4.230459;2.537688
2.590;4.106680;2.575272
2.600;3.978437;2.608914
2.610;3.848216;2.636237
2.620;3.718802;2.655252
2.630;3.593278;2.664865
2.640;3.474769;2.665254
2.650;3.366003;2.657960
2.660;3.268889;2.645610
2.670;3.184246;2.631343
2.680;3.111780;2.618192
2.690;3.050271;2.608628
2.700;2.997875;2.604357
2.710;2.952458;2.606324
2.720;2.911889;2.614810
2.730;2.874305;2.629570
2.740;2.838324;2.649995
2.750;2.803198;2.675283
2.760;2.768854;2.704536
2.770;2.735766;2.736745
2.780;2.704673;2.770694
2.790;2.676200;2.804883
2.800;2.650530;2.837601
2.810;2.627263;2.867180
2.820;2.605531;2.892362
2.830;2.584252;2.912645
2.840;2.562351;2.928474
2.850;2.538812;2.941167
2.860;2.512582;2.952596
2.870;2.482447;2.964762
2.880;2.447038;2.979385
2.890;2.405045;2.997610
2.900;2.355570;3.019814
2.910;2.298465;3.045501
2.920;2.234455;3.073303
2.930;2.164946;3.101117
2.940;2.091591;3.126431
2.950;2.015804;3.146769
2.960;1.938440;3.160110
2.970;1.859767;3.165107
2.980;1.779675;3.161076
2.990;1.697977;3.147885
3.000;1.614679;3.125924
3.010;1.530136;3.096174
3.020;1.445086;3.060246
3.030;1.360610;3.020205
3.040;1.278084;2.978155
3.050;1.199158;2.935770
3.060;1.125747;2.893987
3.070;1.059984;2.853007
3.080;1.004111;2.812585
3.090;0.960265;2.772434
3.100;0.930195;2.732578
3.110;0.914925;2.693499
3.120;0.914483;2.656043
3.130;0.927795;2.621151
3.140;0.952841;2.589539
3.150;0.987075;2.561525
3.160;1.027971;2.537110
3.170;1.073547;2.516268
3.180;1.122639;2.499243
3.190;1.174886;2.486615
3.200;1.230441;2.479035
3.210;1.289555;2.476771
3.220;1.352225;2.479323
3.230;1.417998;2.485340
3.240;1.485981;2.492914
3.250;1.554943;2.500092
3.260;1.623417;2.505358
3.270;1.689721;2.507883
3.280;1.751948;2.507489
3.290;1.808022;2.504398
3.300;1.855944;2.498932
3.310;1.894201;2.491287
3.320;1.922181;2.481407
3.330;1.940367;2.468991
3.340;1.950159;2.453578
3.350;1.953328;2.434683
3.360;1.951347;2.411952
3.370;1.944907;2.385323
3.380;1.933845;2.355163
3.390;1.917507;2.322305
3.400;1.895336;2.287882
3.410;1.867432;2.253001
3.420;1.834863;2.218354
3.430;1.799657;2.183982
3.440;1.764539;2.149264
3.450;1.732511;2.113157
3.460;1.706381;2.074550
3.470;1.688337;2.032593
3.480;1.679663;1.986887
3.490;1.680678;1.937519
3.500;1.690969;1.884998
3.510;1.709865;1.830130
3.520;1.736952;1.773867
3.530;1.772401;1.717194
3.540;1.816920;1.661095
3.550;1.871338;1.606599
3.560;1.935973;1.554846
3.570;2.010091;1.507067
3.580;2.091683;1.464395
3.590;2.177621;1.427530
3.600;2.264120;1.396381
3.610;2.347344;1.369869
3.620;2.423978;1.346026
3.630;2.491665;1.322409
3.640;2.549198;1.296713
3.650;2.596449;1.267346
3.660;2.634093;1.233761
3.670;2.663270;1.196423
3.680;2.685333;1.156466
3.690;2.701748;1.115186
3.700;2.714073;1.073633
3.710;2.723937;1.032439
3.720;2.732926;0.991917
3.730;2.742410;0.952262
3.740;2.753360;0.913721
3.750;2.766226;0.876615
3.760;2.780900;0.841254
3.770;2.796757;0.807808
3.780;2.812739;0.776232
3.790;2.827492;0.746289
3.800;2.839590;0.717712
3.810;2.847842;0.690431
3.820;2.851664;0.664748
3.830;2.851368;0.641299
3.840;2.848184;0.620785
3.850;2.843939;0.603607
3.860;2.840467;0.589630
3.870;2.838994;0.578220
3.880;2.839764;0.568533
3.890;2.842030;0.559899
3.900;2.844412;0.552145
3.910;2.845443;0.545684
3.920;2.844069;0.541381
3.930;2.839926;0.540224
3.940;2.833318;0.542968
3.950;2.824991;0.549861
3.960;2.815843;0.560542
3.970;2.806716;0.574122
3.980;2.798304;0.589418
3.990;2.791135;0.605298
4.000;2.785550;0.621009
4.010;2.781671;0.636380
4.020;2.779354;0.651811
4.030;2.778167;0.668038
4.040;2.777409;0.685771
4.050;2.776173;0.705322
4.060;2.773453;0.726367
4.070;2.768293;0.747929
4.080;2.759967;0.768600
4.090;2.748144;0.786934
4.100;2.732997;0.801869
4.110;2.715172;0.813038
4.120;2.695633;0.820871
4.130;2.675409;0.826473
4.140;2.655354;0.831302
4.150;2.636004;0.836747
4.160;2.617609;0.843717
4.170;2.600321;0.852372
4.180;2.584445;0.862091
4.190;2.570591;0.871661
4.200;2.559642;0.879636
4.210;2.552538;0.884739
4.220;2.549976;0.886199
4.230;2.552132;0.883951
4.240;2.558511;0.878666
4.250;2.567975;0.871588
4.260;2.578965;0.864204
4.270;2.589869;0.857815
4.280;2.599431;0.853169
4.290;2.607074;0.850303
4.300;2.613014;0.848655
4.310;2.618136;0.847376
4.320;2.623709;0.845672
4.330;2.631048;0.843041
4.340;2.641228;0.839389
4.350;2.654894;0.835019
4.360;2.672163;0.830530
4.370;2.692612;0.826624
4.380;2.715331;0.823887
4.390;2.739043;0.822656
4.400;2.762255;0.823055
4.410;2.783462;0.825113
4.420;2.801405;0.828844
4.430;2.815345;0.834196
4.440;2.825292;0.840909
4.450;2.832046;0.848435
4.460;2.837013;0.856014
4.470;2.841819;0.862877
4.480;2.847869;0.868458
4.490;2.855976;0.872504
4.500;2.866206;0.875086
4.510;2.877966;0.876520
4.520;2.890268;0.877268
4.530;2.902074;0.877817
4.540;2.912596;0.878580
4.550;2.921467;0.879835
4.560;2.928708;0.881714
4.570;2.934503;0.884206
4.580;2.938845;0.887148
4.590;2.941238;0.890177
4.600;2.940617;0.892701
4.610;2.935556;0.893954
4.620;2.924680;0.893156
4.630;2.907127;0.889752
4.640;2.882865;0.883610
4.650;2.852758;0.875102
4.660;2.818348;0.865020
4.670;2.781429;0.854352
4.680;2.743594;0.844014
4.690;2.705882;0.834634
4.700;2.668658;0.826494
4.710;2.631712;0.819586
4.720;2.594520;0.813737
4.730;2.556542;0.808702
4.740;2.517473;0.804211
4.750;2.477370;0.800013
4.760;2.436655;0.795953
4.770;2.396028;0.792064
4.780;2.356348;0.788605
4.790;2.318545;0.785964
4.800;2.283538;0.784448
4.810;2.252151;0.784071
4.820;2.224974;0.784455
4.830;2.202201;0.784896
4.840;2.183508;0.784540
4.850;2.168011;0.782578
4.860;2.154370;0.778411
4.870;2.141016;0.771739
4.880;2.126446;0.762606
4.890;2.109508;0.751425
4.900;2.089559;0.738941
4.910;2.066469;0.726126
4.920;2.040484;0.713969
4.930;2.012029;0.703231
4.940;1.981527;0.694251
4.950;1.949301;0.686890
4.960;1.915552;0.680660
4.970;1.880389;0.674978
4.980;1.843890;0.669434
4.990;1.806160;0.663929
5.000;1.767379;0.658634
5.010;1.727818;0.653849
5.020;1.687824;0.649856
5.030;1.647793;0.646837
5.040;1.608144;0.644857
5.050;1.569351;0.643889
5.060;1.532017;0.643843
5.070;1.496988;0.644623
5.080;1.465373;0.646168
5.090;1.438376;0.648496
5.100;1.416921;0.651686
5.110;1.401202;0.655823
5.120;1.390403;0.660918
5.130;1.382787;0.666873
5.140;1.376182;0.673484
5.150;1.368674;0.680465
5.160;1.359232;0.687440
5.170;1.348027;0.693896
5.180;1.336379;0.699193
5.190;1.326452;0.702704
5.200;1.320869;0.704104
5.210;1.322407;0.703697
5.220;1.333777;0.702589
5.230;1.357398;0.702569
5.240;1.395053;0.705649
5.250;1.447421;0.713410
5.260;1.513655;0.726433
5.270;1.591247;0.744069
5.280;1.676319;0.764659
5.290;1.764302;0.786050
5.300;1.850790;0.806159
5.310;1.932288;0.823367
5.320;2.006650;0.836681
5.330;2.073115;0.845731
5.340;2.131987;0.850688
5.350;2.184175;0.852200
5.360;2.230820;0.851323
5.370;2.273187;0.849434
5.380;2.312741;0.848077
5.390;2.351255;0.848752
5.400;2.390742;0.852668
5.410;2.433184;0.860554
5.420;2.480117;0.872615
5.430;2.532186;0.888634
5.440;2.588823;0.908153
5.450;2.648196;0.930626
5.460;2.707460;0.955466
5.470;2.763325;0.982026
5.480;2.812771;1.009559
5.490;2.853739;1.037237
5.500;2.885545;1.064238
5.510;2.908906;1.089864
5.520;2.925586;1.113663
5.530;2.937819;1.135541
5.540;2.947707;1.155835
5.550;2.956748;1.175282
5.560;2.965612;1.194822
5.570;2.974183;1.215274
5.580;2.981837;1.236992
5.590;2.987815;1.259672
5.600;2.991552;1.282415
5.610;2.992837;1.304030
5.620;2.991805;1.323422
5.630;2.988779;1.339870
5.640;2.984050;1.353098
5.650;2.977675;1.363144
5.660;2.969377;1.370180
5.670;2.958593;1.374367
5.680;2.944657;1.375791
5.690;2.927022;1.374465
5.700;2.905404;1.370341
5.710;2.879788;1.363320
5.720;2.850290;1.353248
5.730;2.816996;1.339912
5.740;2.779848;1.323072
5.750;2.738632;1.302526
5.760;2.693055;1.278216
5.770;2.642857;1.250327
5.780;2.587895;1.219336
5.790;2.528191;1.185958
5.800;2.463947;1.151000
5.810;2.395570;1.115179
5.820;2.323707;1.079014
5.830;2.249253;1.042811
5.840;2.173293;1.006716
5.850;2.096953;0.970742
5.860;2.021195;0.934766
5.870;1.946599;0.898536
5.880;1.873248;0.861736
5.890;1.800771;0.824081
5.900;1.728533;0.785367
5.910;1.655877;0.745449
5.920;1.582312;0.704193
5.930;1.507546;0.661536
5.940;1.431404;0.617656
5.950;1.353708;0.573168
5.960;1.274257;0.529156
5.970;1.192961;0.486926
5.980;1.110050;0.447571
5.990;1.026224;0.411576
6.000;0.942625;0.378680
6.010;0.860614;0.348010
6.020;0.781468;0.318371
6.030;0.706083;0.288572
6.040;0.634798;0.257691
6.050;0.567387;0.225222
6.060;0.503236;0.191064
6.070;0.441668;0.155358
6.080;0.382310;0.118289
6.090;0.325389;0.079997
6.100;0.271889;0.040666
6.110;0.223527;0.000765
6.120;0.182559;-0.038709
6.130;0.151434;-0.076132
6.140;0.132387;-0.109340
6.150;0.127050;-0.135877
6.160;0.136186;-0.153361
6.170;0.159583;-0.159918
6.180;0.196094;-0.154626
6.190;0.243754;-0.137798
6.200;0.299952;-0.110983
6.210;0.361677;-0.076623
6.220;0.425878;-0.037475
6.230;0.489900;0.004002
6.240;0.551918;0.046059
6.250;0.611201;0.087752
6.260;0.668128;0.128726
6.270;0.723938;0.168879
6.280;0.780327;0.208091
6.290;0.839056;0.246164
6.300;0.901652;0.282943
6.310;0.969199;0.318500
6.320;1.042135;0.353191
6.330;1.120025;0.387540
6.340;1.201390;0.421999
6.350;1.283738;0.456757
6.360;1.363901;0.491703
6.370;1.438622;0.526559
6.380;1.505179;0.561043
6.390;1.561852;0.594961
6.400;1.608056;0.628191
6.410;1.644154;0.660604
6.420;1.671045;0.691974
6.430;1.689684;0.721880
6.440;1.700700;0.749618
6.450;1.704244;0.774204
6.460;1.700116;0.794523
6.470;1.688102;0.809598
6.480;1.668369;0.818915
6.490;1.641769;0.822658
6.500;1.609937;0.821790
6.510;1.575138;0.817895
6.520;1.539910;0.812840
6.530;1.506643;0.808350
6.540;1.477229;0.805656
6.550;1.452898;0.805287
6.560;1.434234;0.807045
6.570;1.421299;0.810120
6.580;1.413782;0.813329
6.590;1.411133;0.815412
6.600;1.412673;0.815335
6.610;1.417690;0.812492
6.620;1.425467;0.806740
6.630;1.435247;0.798276
6.640;1.446114;0.787439
6.650;1.456911;0.774563
6.660;1.466255;0.759897
6.670;1.472741;0.743601
6.680;1.475282;0.725785
6.690;1.473461;0.706593
6.700;1.467721;0.686311
6.710;1.459326;0.665430
6.720;1.450101;0.644660
6.730;1.442083;0.624899
6.740;1.437213;0.607204
6.750;1.437176;0.592757
6.760;1.443356;0.582810
6.770;1.456808;0.578538
6.780;1.478140;0.580780
6.790;1.507310;0.589737
6.800;1.543408;0.604764
6.810;1.584616;0.624417
6.820;1.628440;0.646769
6.830;1.672242;0.669892
6.840;1.713923;0.692338
6.850;1.752535;0.713410
6.860;1.788615;0.733127
6.870;1.824085;0.751898
6.880;1.861727;0.770067
6.890;1.904365;0.787613
6.900;1.954019;0.804161
6.910;2.011305;0.819242
6.920;2.075246;0.832630
6.930;2.143528;0.844536
6.940;2.213076;0.855537
6.950;2.280788;0.866305
6.960;2.344202;0.877285
6.970;2.401927;0.888532
6.980;2.453772;0.899763
6.990;2.500562;0.910581
7.000;2.543756;0.920704
7.010;2.584995;0.930099
7.020;2.625685;0.938971
7.030;2.666695;0.947644
7.040;2.708193;0.956403
7.050;2.749635;0.965415
7.060;2.789915;0.974790
7.070;2.827659;0.984716
7.080;2.861594;0.995514
7.090;2.890867;1.007514
7.100;2.915170;1.020784
7.110;2.934661;1.034912
7.120;2.949733;1.049025
7.130;2.960802;1.062072
7.140;2.968231;1.073238
7.150;2.972373;1.082289
7.160;2.973638;1.089668
7.170;2.972467;1.096320
7.180;2.969190;1.103309
7.190;2.963901;1.111399
7.200;2.956449;1.120736
7.210;2.946617;1.130750
7.220;2.934413;1.140325
7.230;2.920321;1.148146
7.240;2.905375;1.153105
7.250;2.890983;1.154604
7.260;2.878550;1.152666
7.270;2.869099;1.147872
7.280;2.863041;1.141205
7.290;2.860216;1.133856
7.300;2.860169;1.126992
7.310;2.862506;1.121510
7.320;2.867177;1.117816
7.330;2.874538;1.115718
7.340;2.885165;1.114523
7.350;2.899521;1.113368
7.360;2.917635;1.111676
7.370;2.938923;1.109549
7.380;2.962210;1.107894
7.390;2.985914;1.108182
7.400;3.008326;1.111916
7.410;3.027922;1.119980
7.420;3.043611;1.132141
7.430;3.054879;1.146927
7.440;3.061791;1.161958
7.450;3.064925;1.174652
7.460;3.065281;1.183015
7.470;3.064210;1.186230
7.480;3.063321;1.184842
7.490;3.064301;1.180501
7.500;3.068666;1.175407
7.510;3.077503;1.171628
7.520;3.091315;1.170550
7.530;3.109998;1.172600
7.540;3.132972;1.177347
7.550;3.159430;1.183888
7.560;3.188622;1.191371
7.570;3.220118;1.199412
7.580;3.253944;1.208227
7.590;3.290603;1.218451
7.600;3.330946;1.230770
7.610;3.375955;1.245567
7.620;3.426432;1.262746
7.630;3.482709;1.281755
7.640;3.544475;1.301770
7.650;3.610807;1.321928
7.660;3.680438;1.341527
7.670;3.752119;1.360182
7.680;3.824981;1.377907
7.690;3.898721;1.395130
7.700;3.973587;1.412612
7.710;4.050162;1.431276
7.720;4.129049;1.451982
7.730;4.210576;1.475335
7.740;4.294596;1.501598
7.750;4.380431;1.530746
7.760;4.466961;1.562607
7.770;4.552794;1.596966
7.780;4.636451;1.633538
7.790;4.716498;1.671847
7.800;4.791612;1.711111
7.810;4.860581;1.750269
7.820;4.922281;1.788159
7.830;4.975680;1.823798
7.840;5.019903;1.856638
7.850;5.054343;1.886706
7.860;5.078763;1.914517
7.870;5.093320;1.940785
7.880;5.098490;1.966037
7.890;5.094917;1.990308
7.900;5.083227;2.013030
7.910;5.063903;2.033182
7.920;5.037239;2.049639
7.930;5.003389;2.061597
7.940;4.962443;2.068897
7.950;4.914524;2.072088
7.960;4.859864;2.072212
7.970;4.798878;2.070374
7.980;4.732236;2.067269
7.990;4.660868;2.062820
8.000;4.585867;2.056088
8.010;4.508357;2.045511
8.020;4.429430;2.029421
8.030;4.350211;2.006693
8.040;4.272010;1.977290
8.050;4.196447;1.942527
8.060;4.125452;1.904903
8.070;4.061121;1.867560
8.080;4.005422;1.833538
8.090;3.959844;1.805099
8.100;3.925056;1.783350
8.110;3.900683;1.768226
8.120;3.885259;1.758757
8.130;3.876397;1.753437
8.140;3.871154;1.750542
8.150;3.866535;1.748350
8.160;3.860022;1.745308
8.170;3.850019;1.740193
8.180;3.836109;1.732277
8.190;3.819066;1.721443
8.200;3.800598;1.708229
8.210;3.782873;1.693749
8.220;3.767978;1.679467
8.230;3.757486;1.666852
8.240;3.752244;1.657002
8.250;3.752398;1.650368
8.260;3.757544;1.646667
8.270;3.766887;1.645006
8.280;3.779323;1.644158
8.290;3.793466;1.642862
8.300;3.807705;1.640084
