Time[s];COPx[cm];COPy[cm]
0.010;0.939520;-0.382917
0.020;0.939434;-0.375766
0.030;0.939089;-0.368924
0.040;0.938202;-0.362651
0.050;0.936471;-0.357112
0.060;0.933645;-0.352376
0.070;0.929636;-0.348473
0.080;0.924633;-0.345452
0.090;0.919132;-0.343404
0.100;0.913864;-0.342412
0.110;0.909624;-0.342451
0.120;0.907065;-0.343356
0.130;0.906551;-0.344867
0.140;0.908122;-0.346771
0.150;0.911596;-0.349038
0.160;0.916719;-0.351872
0.170;0.923299;-0.355629
0.180;0.931262;-0.360616
0.190;0.940596;-0.366887
0.200;0.951242;-0.374113
0.210;0.963009;-0.381613
0.220;0.975582;-0.388496
0.230;0.988625;-0.393892
0.240;1.001928;-0.397159
0.250;1.015512;-0.398015
0.260;1.029650;-0.396573
0.270;1.044782;-0.393271
0.280;1.061337;-0.388745
0.290;1.079531;-0.383642
0.300;1.099203;-0.378438
0.310;1.119775;-0.373322
0.320;1.140373;-0.368189
0.330;1.160094;-0.362747
0.340;1.178299;-0.356689
0.350;1.194794;-0.349859
0.360;1.209799;-0.342349
0.370;1.223773;-0.334460
0.380;1.237177;-0.326572
0.390;1.250317;-0.318969
0.400;1.263281;-0.311745
0.410;1.275969;-0.304829
0.420;1.288168;-0.298119
0.430;1.299643;-0.291597
0.440;1.310204;-0.285383
0.450;1.319733;-0.279687
0.460;1.328167;-0.274710
0.470;1.335456;-0.270520
0.480;1.341506;-0.266949
0.490;1.346158;-0.263585
0.500;1.349226;-0.259870
0.510;1.350592;-0.255298
0.520;1.350304;-0.249591
0.530;1.348610;-0.242785
0.540;1.345918;-0.235176
0.550;1.342702;-0.227163
0.560;1.339409;-0.219052
0.570;1.336391;-0.210902
0.580;1.333906;-0.202497
0.590;1.332147;-0.193477
0.600;1.331303;-0.183574
0.610;1.331599;-0.172831
0.620;1.333292;-0.161682
0.630;1.336621;-0.150845
0.640;1.341735;-0.141078
0.650;1.348622;-0.132932
0.660;1.357082;-0.126612
0.670;1.366768;-0.121954
0.680;1.377244;-0.118531
0.690;1.388050;-0.115811
0.700;1.398734;-0.113333
0.710;1.408884;-0.110838
0.720;1.418155;-0.108300
0.730;1.426323;-0.105840
0.740;1.433325;-0.103585
0.750;1.439260;-0.101556
0.760;1.444340;-0.099653
0.770;1.448800;-0.097702
0.780;1.452837;-0.095504
0.790;1.456599;-0.092834
0.800;1.460236;-0.089367
0.810;1.463953;-0.084611
0.820;1.468032;-0.077910
0.830;1.472798;-0.068566
0.840;1.478552;-0.056052
0.850;1.485517;-0.040230
0.860;1.493815;-0.021451
0.870;1.503481;-0.000504
0.880;1.514509;0.021591
0.890;1.526912;0.043884
0.900;1.540802;0.065777
0.910;1.556453;0.087190
0.920;1.574299;0.108548
0.930;1.594852;0.130609
0.940;1.618566;0.154204
0.950;1.645700;0.179945
0.960;1.676241;0.207976
0.970;1.709918;0.237854
0.980;1.746269;0.268624
0.990;1.784748;0.299090
1.000;1.824827;0.328161
1.010;1.866064;0.355114
1.020;1.908105;0.379672
1.030;1.950598;0.401878
1.040;1.993065;0.421852
1.050;2.034802;0.439570
1.060;2.074852;0.454775
1.070;2.112082;0.467059
1.080;2.145350;0.476038
1.090;2.173699;0.481541
1.100;2.196510;0.483718
1.110;2.213555;0.483027
1.120;2.224947;0.480126
1.130;2.231012;0.475705
1.140;2.232141;0.470343
1.150;2.228726;0.464443
1.160;2.221175;0.458229
1.170;2.209943;0.451789
1.180;2.195491;0.445097
1.190;2.178174;0.438050
1.200;2.158130;0.430511
1.210;2.135275;0.422388
1.220;2.109423;0.413712
1.230;2.080492;0.404657
1.240;2.048679;0.395512
1.250;2.014552;0.386613
1.260;1.979014;0.378312
1.270;1.943167;0.370963
1.280;1.908105;0.364896
1.290;1.874693;0.360377
1.300;1.843406;0.357561
1.310;1.814280;0.356474
1.320;1.787011;0.357041
1.330;1.761156;0.359132
1.340;1.736339;0.362604
1.350;1.712353;0.367313
1.360;1.689149;0.373087
1.370;1.666718;0.379659
1.380;1.644986;0.386625
1.390;1.623775;0.393484
1.400;1.602870;0.399768
1.410;1.582135;0.405182
1.420;1.561636;0.409696
1.430;1.541670;0.413522
1.440;1.522695;0.416991
1.450;1.505159;0.420390
1.460;1.489312;0.423824
1.470;1.475113;0.427155
1.480;1.462295;0.430017
1.490;1.450550;0.431892
1.500;1.439748;0.432223
1.510;1.430053;0.430574
1.520;1.421882;0.426796
1.530;1.415732;0.421130
1.540;1.411968;0.414197
1.550;1.410674;0.406855
1.560;1.411645;0.399968
1.570;1.414512;0.394160
1.580;1.418909;0.389638
1.590;1.424583;0.386151
1.600;1.431383;0.383102
1.610;1.439161;0.379786
1.620;1.447661;0.375658
1.630;1.456475;0.370524
1.640;1.465108;0.364551
1.650;1.473100;0.358075
1.660;1.480143;0.351334
1.670;1.486132;0.344246
1.680;1.491159;0.336368
1.690;1.495489;0.327042
1.700;1.499508;0.315646
1.710;1.503669;0.301846
1.720;1.508418;0.285738
1.730;1.514122;0.267815
1.740;1.521035;0.248800
1.750;1.529285;0.229422
1.760;1.538896;0.210227
1.770;1.549824;0.191461
1.780;1.562000;0.173051
1.790;1.575378;0.154709
1.800;1.589942;0.136137
1.810;1.605671;0.117232
1.820;1.622465;0.098208
1.830;1.640093;0.079574
1.840;1.658206;0.062002
1.850;1.676417;0.046135
1.860;1.694382;0.032426
1.870;1.711829;0.021055
1.880;1.728504;0.011955
1.890;1.744106;0.004917
1.900;1.758262;-0.000280
1.910;1.770560;-0.003791
1.920;1.780618;-0.005725
1.930;1.788122;-0.006255
1.940;1.792833;-0.005739
1.950;1.794615;-0.004779
1.960;1.793493;-0.004154
1.970;1.789731;-0.004643
1.980;1.783876;-0.006809
1.990;1.776705;-0.010830
2.000;1.769079;-0.016458
2.010;1.761757;-0.023108
2.020;1.755239;-0.030050
2.030;1.749706;-0.036643
2.040;1.745062;-0.042550
2.050;1.741022;-0.047843
2.060;1.737219;-0.052932
2.070;1.733321;-0.058365
2.080;1.729140;-0.064584
2.090;1.724732;-0.071772
2.100;1.720429;-0.079824
2.110;1.716786;-0.088411
2.120;1.714430;-0.097071
2.130;1.713872;-0.105299
2.140;1.715342;-0.112622
2.150;1.718705;-0.118669
2.160;1.723506;-0.123214
2.170;1.729115;-0.126217
2.180;1.734923;-0.127844
2.190;1.740509;-0.128454
2.200;1.745686;-0.128558
2.210;1.750449;-0.128753
2.220;1.754855;-0.129664
2.230;1.758924;-0.131871
2.240;1.762606;-0.135818
2.250;1.765809;-0.141702
2.260;1.768440;-0.149380
2.270;1.770429;-0.158352
2.280;1.771701;-0.167874
2.290;1.772151;-0.177180
2.300;1.771655;-0.185706
2.310;1.770122;-0.193240
2.320;1.767578;-0.199962
2.330;1.764175;-0.206397
2.340;1.760099;-0.213294
2.350;1.755418;-0.221454
2.360;1.749941;-0.231534
2.370;1.743190;-0.243897
2.380;1.734503;-0.258558
2.390;1.723209;-0.275232
2.400;1.708824;-0.293452
2.410;1.691190;-0.312672
2.420;1.670546;-0.332317
2.430;1.647502;-0.351796
2.440;1.622925;-0.370511
2.450;1.597762;-0.387914
2.460;1.572834;-0.403596
2.470;1.548690;-0.417344
2.480;1.525555;-0.429148
2.490;1.503401;-0.439135
2.500;1.482068;-0.447472
2.510;1.461372;-0.454276
2.520;1.441192;-0.459600
2.530;1.421528;-0.463485
2.540;1.402577;-0.466035
2.550;1.384779;-0.467462
2.560;1.368808;-0.468059
2.570;1.355437;-0.468141
2.580;1.345336;-0.468008
2.590;1.338862;-0.467945
2.600;1.335936;-0.468232
2.610;1.336027;-0.469131
2.620;1.338245;-0.470850
2.630;1.341511;-0.473513
2.640;1.344770;-0.477158
2.650;1.347216;-0.481770
2.660;1.348447;-0.487310
2.670;1.348481;-0.493705
2.680;1.347635;-0.500830
2.690;1.346286;-0.508491
2.700;1.344625;-0.516461
2.710;1.342491;-0.524526
2.720;1.339360;-0.532536
2.730;1.334513;-0.540401
2.740;1.327286;-0.548069
2.750;1.317296;-0.555525
2.760;1.304504;-0.562869
2.770;1.289128;-0.570406
2.780;1.271454;-0.578670
2.790;1.251698;-0.588269
2.800;1.229992;-0.599612
2.810;1.206482;-0.612650
2.820;1.181490;-0.626808
2.830;1.155653;-0.641121
2.840;1.129959;-0.654528
2.850;1.105657;-0.666160
2.860;1.084059;-0.675563
2.870;1.066286;-0.682774
2.880;1.053022;-0.688253
2.890;1.044374;-0.692693
2.900;1.039873;-0.696800
2.910;1.038627;-0.701120
2.920;1.039576;-0.705912
2.930;1.041754;-0.711075
2.940;1.044496;-0.716158
2.950;1.047551;-0.720484
2.960;1.051069;-0.723385
2.970;1.055495;-0.724470
2.980;1.061388;-0.723813
2.990;1.069236;-0.721969
3.000;1.079300;-0.719800
3.010;1.091513;-0.718192
3.020;1.105457;-0.717803
3.030;1.120409;-0.718901
3.040;1.135483;-0.721319
3.050;1.149822;-0.724467
3.060;1.162804;-0.727402
3.070;1.174179;-0.728966
3.080;1.184063;-0.727985
3.090;1.192823;-0.723487
3.100;1.200940;-0.714878
3.110;1.208941;-0.701990
3.120;1.217421;-0.684982
3.130;1.227107;-0.664141
3.140;1.238868;-0.639702
3.150;1.253593;-0.611805
3.160;1.271971;-0.580636
3.170;1.294280;-0.546654
3.180;1.320288;-0.510753
3.190;1.349335;-0.474235
3.200;1.380515;-0.438553
3.210;1.412871;-0.404957
3.220;1.445522;-0.374194
3.230;1.477733;-0.346411
3.240;1.508981;-0.321286
3.250;1.539014;-0.298290
3.260;1.567875;-0.276943
3.270;1.595808;-0.256960
3.280;1.623024;-0.238282
3.290;1.649429;-0.221002
3.300;1.674461;-0.205247
3.310;1.697130;-0.191034
3.320;1.716255;-0.178172
3.330;1.730806;-0.166242
3.340;1.740227;-0.154689
3.350;1.744659;-0.142982
3.360;1.744979;-0.130756
3.370;1.742618;-0.117871
3.380;1.739216;-0.104365
3.390;1.736221;-0.090355
3.400;1.734579;-0.075932
3.410;1.734635;-0.061105
3.420;1.736275;-0.045795
3.430;1.739236;-0.029898
3.440;1.743406;-0.013368
3.450;1.748987;0.003708
3.460;1.756441;0.021089
3.470;1.766315;0.038421
3.480;1.779062;0.055317
3.490;1.794944;0.071443
3.500;1.814001;0.086579
3.510;1.836060;0.100632
3.520;1.860724;0.113570
3.530;1.887369;0.125330
3.540;1.915182;0.135741
3.550;1.943287;0.144531
3.560;1.970913;0.151400
3.570;1.997533;0.156124
3.580;2.022890;0.158645
3.590;2.046877;0.159106
3.600;2.069359;0.157835
3.610;2.090054;0.155295
3.620;2.108548;0.152003
3.630;2.124434;0.148448
3.640;2.137465;0.144991
3.650;2.147630;0.141774
3.660;2.155107;0.138679
3.670;2.160152;0.135353
3.680;2.162989;0.131282
3.690;2.163773;0.125904
3.700;2.162634;0.118728
3.710;2.159780;0.109431
3.720;2.155584;0.097914
3.730;2.150578;0.084290
3.740;2.145356;0.068798
3.750;2.140398;0.051688
3.760;2.135911;0.033113
3.770;2.131769;0.013071
3.780;2.127570;-0.008584
3.790;2.122795;-0.032090
3.800;2.116989;-0.057694
3.810;2.109934;-0.085584
3.820;2.101762;-0.115863
3.830;2.092966;-0.148600
3.840;2.084277;-0.183884
3.850;2.076422;-0.221805
3.860;2.069857;-0.262308
3.870;2.064583;-0.305025
3.880;2.060148;-0.349191
3.890;2.055796;-0.393735
3.900;2.050710;-0.437479
3.910;2.044232;-0.479314
3.920;2.035992;-0.518267
3.930;2.025923;-0.553485
3.940;2.014206;-0.584233
3.950;2.001207;-0.609969
3.960;1.987436;-0.630464
3.970;1.973509;-0.645908
3.980;1.960090;-0.656901
3.990;1.947783;-0.664308
4.000;1.937004;-0.669053
4.010;1.927892;-0.671932
4.020;1.920305;-0.673539
4.030;1.913927;-0.674318
4.040;1.908439;-0.674680
4.050;1.903692;-0.675116
4.060;1.899765;-0.676209
4.070;1.896914;-0.678530
4.080;1.895433;-0.682479
4.090;1.895536;-0.688161
4.100;1.897295;-0.695360
4.110;1.900654;-0.703637
4.120;1.905501;-0.712497
4.130;1.911735;-0.721579
4.140;1.919284;-0.730774
4.150;1.928046;-0.740250
4.160;1.937791;-0.750361
4.170;1.948111;-0.761504
4.180;1.958460;-0.773951
4.190;1.968298;-0.787732
4.200;1.977283;-0.802602
4.210;1.985396;-0.818129
4.220;1.992923;-0.833871
4.230;2.000275;-0.849548
4.240;2.007730;-0.865124
4.250;2.015259;-0.880768
4.260;2.022529;-0.896724
4.270;2.029078;-0.913160
4.280;2.034584;-0.930022
4.290;2.039082;-0.946936
4.300;2.043001;-0.963213
4.310;2.046993;-0.977985
4.320;2.051609;-0.990440
4.330;2.056990;-1.000061
4.340;2.062720;-1.006763
4.350;2.067926;-1.010873
4.360;2.071573;-1.012982
4.370;2.072829;-1.013730
4.380;2.071339;-1.013616
4.390;2.067310;-1.012889
4.400;2.061386;-1.011539
4.410;2.054376;-1.009364
4.420;2.046973;-1.006058
4.430;2.039579;-1.001308
4.440;2.032283;-0.994890
4.450;2.024969;-0.986767
4.460;2.017447;-0.977139
4.470;2.009564;-0.966420
4.480;2.001259;-0.955131
4.490;1.992589;-0.943758
4.500;1.983723;-0.932658
4.510;1.974938;-0.922054
4.520;1.966618;-0.912126
4.530;1.959248;-0.903109
4.540;1.953345;-0.895314
4.550;1.949321;-0.889005
4.560;1.947327;-0.884199
4.570;1.947177;-0.880505
4.580;1.948394;-0.877147
4.590;1.950369;-0.873205
4.600;1.952552;-0.867959
4.610;1.954570;-0.861184
4.620;1.956266;-0.853238
4.630;1.957634;-0.844904
4.640;1.958723;-0.837036
4.650;1.959557;-0.830185
4.660;1.960116;-0.824338
4.670;1.960357;-0.818912
4.680;1.960248;-0.812996
4.690;1.959785;-0.805735
4.700;1.958993;-0.796661
4.710;1.957915;-0.785817
4.720;1.956606;-0.773645
4.730;1.955138;-0.760709
4.740;1.953612;-0.747424
4.750;1.952198;-0.733884
4.760;1.951167;-0.719860
4.770;1.950872;-0.704937
4.780;1.951658;-0.688697
4.790;1.953745;-0.670883
4.800;1.957165;-0.651451
4.810;1.961790;-0.630534
4.820;1.967427;-0.608345
4.830;1.973887;-0.585069
4.840;1.981007;-0.560766
4.850;1.988619;-0.535342
4.860;1.996527;-0.508575
4.870;2.004498;-0.480200
4.880;2.012268;-0.449995
4.890;2.019555;-0.417827
4.900;2.026103;-0.383671
4.910;2.031731;-0.347574
4.920;2.036378;-0.309627
4.930;2.040092;-0.269975
4.940;2.042948;-0.228880
4.950;2.044927;-0.186779
4.960;2.045833;-0.144288
4.970;2.045288;-0.102121
4.980;2.042839;-0.060976
4.990;2.038108;-0.021449
5.000;2.030903;0.016024
5.010;2.021237;0.051193
5.020;2.009237;0.083999
5.030;1.995011;0.114544
5.040;1.978544;0.143036
5.050;1.959702;0.169737
5.060;1.938337;0.194926
5.070;1.914425;0.218863
5.080;1.888153;0.241762
5.090;1.859886;0.263772
5.100;1.830054;0.284974
5.110;1.799030;0.305386
5.120;1.767083;0.324951
5.130;1.734433;0.343517
5.140;1.701352;0.360838
5.150;1.668252;0.376640
5.160;1.635682;0.390731
5.170;1.604233;0.403100
5.180;1.574374;0.413938
5.190;1.546303;0.423537
5.200;1.519876;0.432133
5.210;1.494634;0.439773
5.220;1.469922;0.446299
5.230;1.445047;0.451420
5.240;1.419432;0.454841
5.250;1.392733;0.456363
5.260;1.364889;0.455915
5.270;1.336113;0.453500
5.280;1.306782;0.449075
5.290;1.277259;0.442446
5.300;1.247704;0.433269
5.310;1.217996;0.421171
5.320;1.187839;0.405957
5.330;1.156987;0.387799
5.340;1.125486;0.367321
5.350;1.093756;0.345504
5.360;1.062478;0.323424
5.370;1.032344;0.301911
5.380;1.003824;0.281305
5.390;0.977076;0.261445
5.400;0.952044;0.241899
5.410;0.928625;0.222300
5.420;0.906797;0.202593
5.430;0.886633;0.183065
5.440;0.868208;0.164182
5.450;0.851476;0.146380
5.460;0.836214;0.129938
5.470;0.822067;0.114968
5.480;0.808653;0.101478
5.490;0.795671;0.089437
5.500;0.782942;0.078784
5.510;0.770388;0.069421
5.520;0.757958;0.061214
5.530;0.745548;0.054043
5.540;0.732957;0.047858
5.550;0.719913;0.042725
5.560;0.706147;0.038814
5.570;0.691493;0.036350
5.580;0.675965;0.035529
5.590;0.659767;0.036462
5.600;0.643222;0.039163
5.610;0.626642;0.043574
5.620;0.610211;0.049616
5.630;0.593934;0.057232
5.640;0.577680;0.066415
5.650;0.561252;0.077218
5.660;0.544446;0.089734
5.670;0.527051;0.104059
5.680;0.508794;0.120239
5.690;0.489289;0.138202
5.700;0.468025;0.157710
5.710;0.444455;0.178335
5.720;0.418176;0.199544
5.730;0.389130;0.220835
5.740;0.357714;0.241896
5.750;0.324714;0.262678
5.760;0.291080;0.283367
5.770;0.257663;0.304273
5.780;0.225024;0.325698
5.790;0.193386;0.347835
5.800;0.162699;0.370726
5.810;0.132763;0.394253
5.820;0.103390;0.418130
5.830;0.074535;0.441890
5.840;0.046398;0.464880
5.850;0.019445;0.486333
5.860;-0.005637;0.505502
5.870;-0.028061;0.521851
5.880;-0.047116;0.535230
5.890;-0.062352;0.545950
5.900;-0.073733;0.554728
5.910;-0.081694;0.562521
5.920;-0.087045;0.570265
5.930;-0.090746;0.578627
5.940;-0.093626;0.587837
5.950;-0.096184;0.597691
5.960;-0.098550;0.607689
5.970;-0.100601;0.617244
5.980;-0.102163;0.625835
5.990;-0.103207;0.633087
6.000;-0.103954;0.638781
6.010;-0.104836;0.642862
6.020;-0.106341;0.645456
6.030;-0.108833;0.646877
6.040;-0.112475;0.647593
6.050;-0.117282;0.648164
6.060;-0.123223;0.649131
6.070;-0.130260;0.650878
6.080;-0.138303;0.653514
6.090;-0.147128;0.656802
6.100;-0.156341;0.660183
6.110;-0.165412;0.662879
6.120;-0.173763;0.664053
6.130;-0.180870;0.662999
6.140;-0.186360;0.659296
6.150;-0.190079;0.652878
6.160;-0.192107;0.643997
6.170;-0.192698;0.633092
6.180;-0.192136;0.620645
6.190;-0.190580;0.607076
6.200;-0.187971;0.592711
6.210;-0.184069;0.577774
6.220;-0.178603;0.562361
6.230;-0.171440;0.546385
6.240;-0.162678;0.529530
6.250;-0.152601;0.511290
6.260;-0.141544;0.491114
6.270;-0.129760;0.468627
6.280;-0.117376;0.443840
6.290;-0.104462;0.417219
6.300;-0.091131;0.389576
6.310;-0.077609;0.361813
6.320;-0.064199;0.334677
6.330;-0.051158;0.308614
6.340;-0.038566;0.283761
6.350;-0.026279;0.260022
6.360;-0.014024;0.237168
6.370;-0.001573;0.214912
6.380;0.011093;0.192929
6.390;0.023734;0.170849
6.400;0.035948;0.148227
6.410;0.047312;0.124558
6.420;0.057508;0.099365
6.430;0.066413;0.072335
6.440;0.074134;0.043445
6.450;0.081008;0.012973
6.460;0.087513;-0.018617
6.470;0.094098;-0.050877
6.480;0.100998;-0.083563
6.490;0.108098;-0.116717
6.500;0.114934;-0.150616
6.510;0.120836;-0.185658
6.520;0.125188;-0.222227
6.530;0.127693;-0.260565
6.540;0.128570;-0.300656
6.550;0.128575;-0.342132
6.560;0.128860;-0.384238
6.570;0.130706;-0.425909
6.580;0.135223;-0.465951
6.590;0.143105;-0.503308
6.600;0.154525;-0.537336
6.610;0.169174;-0.567938
6.620;0.186426;-0.595486
6.630;0.205506;-0.620564
6.640;0.225603;-0.643680
6.650;0.245906;-0.665091
6.660;0.265625;-0.684782
6.670;0.284043;-0.702566
6.680;0.300620;-0.718221
6.690;0.315098;-0.731601
6.700;0.327556;-0.742723
6.710;0.338382;-0.751788
6.720;0.348141;-0.759134
6.730;0.357407;-0.765110
6.740;0.366618;-0.769949
6.750;0.375978;-0.773695
6.760;0.385434;-0.776216
6.770;0.394692;-0.777290
6.780;0.403299;-0.776706
6.790;0.410775;-0.774374
6.800;0.416805;-0.770418
6.810;0.421421;-0.765218
6.820;0.425097;-0.759364
6.830;0.428695;-0.753520
6.840;0.433264;-0.748269
6.850;0.439774;-0.743972
6.860;0.448882;-0.740731
6.870;0.460812;-0.738461
6.880;0.475399;-0.737020
6.890;0.492245;-0.736316
6.900;0.510896;-0.736343
6.910;0.530977;-0.737127
6.920;0.552232;-0.738633
6.930;0.574518;-0.740675
6.940;0.597755;-0.742852
6.950;0.621867;-0.744503
6.960;0.646713;-0.744722
6.970;0.672029;-0.742475
6.980;0.697403;-0.736827
6.990;0.722282;-0.727223
7.000;0.746027;-0.713679
7.010;0.768016;-0.696799
7.020;0.787756;-0.677594
7.030;0.804947;-0.657192
7.040;0.819470;-0.636568
7.050;0.831309;-0.616398
7.060;0.840458;-0.597057
7.070;0.846885;-0.578712
7.080;0.850568;-0.561449
7.090;0.851582;-0.545357
7.100;0.850167;-0.530553
7.110;0.846744;-0.517179
7.120;0.841881;-0.505381
7.130;0.836251;-0.495324
7.140;0.830594;-0.487196
7.150;0.825676;-0.481194
7.160;0.822233;-0.477516
7.170;0.820903;-0.476358
7.180;0.822182;-0.477943
7.190;0.826397;-0.482533
7.200;0.833714;-0.490388
7.210;0.844147;-0.501674
7.220;0.857537;-0.516380
7.230;0.873546;-0.534297
7.240;0.891667;-0.555044
7.250;0.911294;-0.578097
7.260;0.931835;-0.602794
7.270;0.952819;-0.628352
7.280;0.973991;-0.653941
7.290;0.995354;-0.678834
7.300;1.017146;-0.702561
7.310;1.039712;-0.724979
7.320;1.063308;-0.746227
7.330;1.087928;-0.766582
7.340;1.113203;-0.786270
7.350;1.138410;-0.805329
7.360;1.162575;-0.823538
7.370;1.184617;-0.840433
7.380;1.203539;-0.855362
7.390;1.218620;-0.867549
7.400;1.229555;-0.876184
7.410;1.236483;-0.880557
7.420;1.239880;-0.880205
7.430;1.240366;-0.875039
7.440;1.238495;-0.865383
7.450;1.234615;-0.851896
7.460;1.228853;-0.835363
7.470;1.221239;-0.816446
7.480;1.211908;-0.795477
7.490;1.201251;-0.772385
7.500;1.189918;-0.746763
7.510;1.178677;-0.718012
7.520;1.168226;-0.685494
7.530;1.159076;-0.648633
7.540;1.151554;-0.606964
7.550;1.145857;-0.560157
7.560;1.142114;-0.508095
7.570;1.140413;-0.451008
7.580;1.140828;-0.389644
7.590;1.143454;-0.325351
7.600;1.148412;-0.259988
7.610;1.155791;-0.195568
7.620;1.165518;-0.133770
7.630;1.177245;-0.075500
7.640;1.190343;-0.020737
7.650;1.204027;0.031258
7.660;1.217528;0.081473
7.670;1.230231;0.130645
7.680;1.241722;0.178919
7.690;1.251761;0.225799
7.700;1.260194;0.270352
7.710;1.266861;0.311566
7.720;1.271538;0.348724
7.730;1.273935;0.381663
7.740;1.273756;0.410827
7.750;1.270797;0.437116
7.760;1.265005;0.461610
7.770;1.256469;0.485282
7.780;1.245380;0.508779
7.790;1.232007;0.532299
7.800;1.216730;0.555566
7.810;1.200114;0.577896
7.820;1.182946;0.598369
7.830;1.166210;0.616063
7.840;1.150967;0.630302
7.850;1.138176;0.640858
7.860;1.128536;0.648020
7.870;1.122375;0.652511
7.880;1.119639;0.655249
7.890;1.119953;0.657025
7.900;1.122747;0.658239
7.910;1.127401;0.658809
7.920;1.133362;0.658294
7.930;1.140228;0.656175
7.940;1.147758;0.652124
7.950;1.155792;0.646128
7.960;1.164129;0.638416
7.970;1.172433;0.629253
7.980;1.180232;0.618746
7.990;1.187031;0.606758
8.000;1.192454;0.592960
8.010;1.196351;0.576954
8.020;1.198817;0.558397
8.030;1.200141;0.537077
8.040;1.200748;0.512937
8.050;1.201168;0.486018
8.060;1.202065;0.456380
8.070;1.204256;0.424031
8.080;1.208692;0.388942
8.090;1.216336;0.351166
