Time[s];COPx[cm];COPy[cm]
0.010;-0.271541;-0.991180
0.020;-0.252079;-0.990339
0.030;-0.233715;-0.989588
0.040;-0.217456;-0.989010
0.050;-0.204165;-0.988685
0.060;-0.194456;-0.988647
0.070;-0.188607;-0.988818
0.080;-0.186525;-0.988984
0.090;-0.187798;-0.988835
0.100;-0.191815;-0.988086
0.110;-0.197926;-0.986623
0.120;-0.205589;-0.984593
0.130;-0.214461;-0.982375
0.140;-0.224427;-0.980445
0.150;-0.235564;-0.979176
0.160;-0.248072;-0.978694
0.170;-0.262183;-0.978849
0.180;-0.278101;-0.979273
0.190;-0.295962;-0.979510
0.200;-0.315844;-0.979135
0.210;-0.337752;-0.977882
0.220;-0.361609;-0.975740
0.230;-0.387201;-0.973008
0.240;-0.414143;-0.970233
0.250;-0.441859;-0.968062
0.260;-0.469622;-0.967008
0.270;-0.496632;-0.967255
0.280;-0.522120;-0.968575
0.290;-0.545458;-0.970431
0.300;-0.566247;-0.972225
0.310;-0.584370;-0.973540
0.320;-0.599992;-0.974261
0.330;-0.613490;-0.974501
0.340;-0.625355;-0.974420
0.350;-0.636088;-0.974078
0.360;-0.646111;-0.973445
0.370;-0.655721;-0.972535
0.380;-0.665083;-0.971518
0.390;-0.674264;-0.970701
0.400;-0.683278;-0.970349
0.410;-0.692120;-0.970503
0.420;-0.700757;-0.970936
0.430;-0.709069;-0.971290
0.440;-0.716789;-0.971292
0.450;-0.723488;-0.970900
0.460;-0.728684;-0.970305
0.470;-0.732024;-0.969831
0.480;-0.733453;-0.969815
0.490;-0.733248;-0.970536
0.500;-0.731879;-0.972170
0.510;-0.729780;-0.974757
0.520;-0.727173;-0.978153
0.530;-0.724043;-0.982051
0.540;-0.720260;-0.986081
0.550;-0.715772;-0.989950
0.560;-0.710767;-0.993521
0.570;-0.705728;-0.996777
0.580;-0.701377;-0.999714
0.590;-0.698544;-1.002261
0.600;-0.698016;-1.004302
0.610;-0.700393;-1.005752
0.620;-0.705973;-1.006635
0.630;-0.714682;-1.007092
0.640;-0.726098;-1.007325
0.650;-0.739554;-1.007518
0.660;-0.754297;-1.007771
0.670;-0.769628;-1.008058
0.680;-0.784971;-1.008226
0.690;-0.799904;-1.008050
0.700;-0.814174;-1.007350
0.710;-0.827739;-1.006131
0.720;-0.840799;-1.004676
0.730;-0.853767;-1.003511
0.740;-0.867143;-1.003244
0.750;-0.881350;-1.004319
0.760;-0.896602;-1.006796
0.770;-0.912885;-1.010260
0.780;-0.930021;-1.013892
0.790;-0.947757;-1.016703
0.800;-0.965830;-1.017824
0.810;-0.984014;-1.016758
0.820;-1.002169;-1.013517
0.830;-1.020281;-1.008593
0.840;-1.038450;-1.002785
0.850;-1.056827;-0.996971
0.860;-1.075521;-0.991890
0.870;-1.094546;-0.988003
0.880;-1.113866;-0.985455
0.890;-1.133490;-0.984117
0.900;-1.153562;-0.983667
0.910;-1.174377;-0.983672
0.920;-1.196299;-0.983627
0.930;-1.219622;-0.982952
0.940;-1.244434;-0.980984
0.950;-1.270537;-0.977047
0.960;-1.297465;-0.970616
0.970;-1.324575;-0.961548
0.980;-1.351179;-0.950253
0.990;-1.376676;-0.937670
1.000;-1.400658;-0.925042
1.010;-1.422988;-0.913574
1.020;-1.443799;-0.904115
1.030;-1.463405;-0.896992
1.040;-1.482104;-0.892029
1.050;-1.499969;-0.888705
1.060;-1.516717;-0.886352
1.070;-1.531715;-0.884322
1.080;-1.544104;-0.882108
1.090;-1.553003;-0.879434
1.100;-1.557737;-0.876305
1.110;-1.558008;-0.873006
1.120;-1.553945;-0.870042
1.130;-1.545997;-0.868018
1.140;-1.534728;-0.867494
1.150;-1.520614;-0.868860
1.160;-1.503927;-0.872272
1.170;-1.484763;-0.877651
1.180;-1.463170;-0.884711
1.190;-1.439335;-0.892976
1.200;-1.413732;-0.901787
1.210;-1.387164;-0.910343
1.220;-1.360663;-0.917830
1.230;-1.335270;-0.923664
1.240;-1.311766;-0.927706
1.250;-1.290472;-0.930349
1.260;-1.271212;-0.932374
1.270;-1.253487;-0.934646
1.280;-1.236757;-0.937778
1.290;-1.220709;-0.941927
1.300;-1.205386;-0.946775
1.310;-1.191157;-0.951681
1.320;-1.178598;-0.955918
1.330;-1.168337;-0.958907
1.340;-1.160925;-0.960361
1.350;-1.156744;-0.960307
1.360;-1.155954;-0.958985
1.370;-1.158489;-0.956681
1.380;-1.164086;-0.953624
1.390;-1.172346;-0.949982
1.400;-1.182798;-0.945927
1.410;-1.194954;-0.941652
1.420;-1.208354;-0.937304
1.430;-1.222611;-0.932870
1.440;-1.237449;-0.928130
1.450;-1.252692;-0.922756
1.460;-1.268207;-0.916521
1.470;-1.283817;-0.909505
1.480;-1.299230;-0.902156
1.490;-1.314034;-0.895161
1.500;-1.327728;-0.889180
1.510;-1.339784;-0.884583
1.520;-1.349705;-0.881333
1.530;-1.357103;-0.879067
1.540;-1.361803;-0.877298
1.550;-1.363926;-0.875604
1.560;-1.363907;-0.873723
1.570;-1.362406;-0.871571
1.580;-1.360160;-0.869222
1.590;-1.357830;-0.866853
1.600;-1.355915;-0.864635
1.610;-1.354734;-0.862606
1.620;-1.354477;-0.860598
1.630;-1.355253;-0.858291
1.640;-1.357119;-0.855364
1.650;-1.360069;-0.851667
1.660;-1.364027;-0.847307
1.670;-1.368850;-0.842607
1.680;-1.374358;-0.837979
1.690;-1.380340;-0.833770
1.700;-1.386547;-0.830168
1.710;-1.392659;-0.827181
1.720;-1.398260;-0.824706
1.730;-1.402841;-0.822633
1.740;-1.405853;-0.820926
1.750;-1.406802;-0.819649
1.760;-1.405389;-0.818896
1.770;-1.401643;-0.818668
1.780;-1.395988;-0.818779
1.790;-1.389209;-0.818874
1.800;-1.382281;-0.818559
1.810;-1.376114;-0.817581
1.820;-1.371309;-0.815931
1.830;-1.368033;-0.813826
1.840;-1.366072;-0.811577
1.850;-1.365016;-0.809446
1.860;-1.364456;-0.807565
1.870;-1.364097;-0.805921
1.880;-1.363765;-0.804387
1.890;-1.363323;-0.802752
1.900;-1.362573;-0.800752
1.910;-1.361217;-0.798125
1.920;-1.358922;-0.794682
1.930;-1.355464;-0.790407
1.940;-1.350880;-0.785520
1.950;-1.345496;-0.780484
1.960;-1.339841;-0.775920
1.970;-1.334462;-0.772423
1.980;-1.329733;-0.770341
1.990;-1.325737;-0.769600
2.000;-1.322241;-0.769674
2.010;-1.318788;-0.769737
2.020;-1.314868;-0.768974
2.030;-1.310114;-0.766894
2.040;-1.304445;-0.763521
2.050;-1.298062;-0.759357
2.060;-1.291299;-0.755141
2.070;-1.284390;-0.751529
2.080;-1.277311;-0.748837
2.090;-1.269747;-0.746930
2.100;-1.261207;-0.745300
2.110;-1.251200;-0.743288
2.120;-1.239393;-0.740374
2.130;-1.225702;-0.736431
2.140;-1.210270;-0.731838
2.150;-1.193383;-0.727386
2.160;-1.175328;-0.724018
2.170;-1.156278;-0.722475
2.180;-1.136213;-0.723009
2.190;-1.114960;-0.725258
2.200;-1.092296;-0.728373
2.210;-1.068107;-0.731323
2.220;-1.042508;-0.733270
2.230;-1.015913;-0.733830
2.240;-0.989036;-0.733122
2.250;-0.962825;-0.731620
2.260;-0.938329;-0.729893
2.270;-0.916527;-0.728363
2.280;-0.898161;-0.727138
2.290;-0.883617;-0.725962
2.300;-0.872910;-0.724314
2.310;-0.865749;-0.721644
2.320;-0.861666;-0.717651
2.330;-0.860147;-0.712487
2.340;-0.860731;-0.706759
2.350;-0.863027;-0.701310
2.360;-0.866660;-0.696885
2.370;-0.871183;-0.693860
2.380;-0.876018;-0.692136
2.390;-0.880499;-0.691246
2.400;-0.884011;-0.690585
2.410;-0.886149;-0.689649
2.420;-0.886806;-0.688178
2.430;-0.886150;-0.686157
2.440;-0.884528;-0.683716
2.450;-0.882366;-0.681025
2.460;-0.880070;-0.678224
2.470;-0.877944;-0.675427
2.480;-0.876101;-0.672744
2.490;-0.874415;-0.670293
2.500;-0.872538;-0.668164
2.510;-0.870007;-0.666354
2.520;-0.866411;-0.664695
2.530;-0.861548;-0.662851
2.540;-0.855495;-0.660371
2.550;-0.848562;-0.656817
2.560;-0.841157;-0.651904
2.570;-0.833640;-0.645587
2.580;-0.826234;-0.638096
2.590;-0.819000;-0.629897
2.600;-0.811862;-0.621606
2.610;-0.804652;-0.613869
2.620;-0.797141;-0.607231
2.630;-0.789038;-0.602008
2.640;-0.780007;-0.598204
2.650;-0.769717;-0.595482
2.660;-0.757934;-0.593264
2.670;-0.744634;-0.590949
2.680;-0.730093;-0.588130
2.690;-0.714895;-0.584708
2.700;-0.699812;-0.580829
2.710;-0.685583;-0.576696
2.720;-0.672668;-0.572397
2.730;-0.661150;-0.567812
2.740;-0.650816;-0.562639
2.750;-0.641386;-0.556509
2.760;-0.632718;-0.549168
2.770;-0.624898;-0.540636
2.780;-0.618195;-0.531281
2.790;-0.612970;-0.521757
2.800;-0.609585;-0.512804
2.810;-0.608314;-0.504999
2.820;-0.609266;-0.498545
2.830;-0.612318;-0.493203
2.840;-0.617115;-0.488414
2.850;-0.623166;-0.483537
2.860;-0.630028;-0.478122
2.870;-0.637472;-0.472052
2.880;-0.645581;-0.465523
2.890;-0.654698;-0.458885
2.900;-0.665272;-0.452484
2.910;-0.677623;-0.446567
2.920;-0.691726;-0.441282
2.930;-0.707062;-0.436734
2.940;-0.722641;-0.433054
2.950;-0.737179;-0.430406
2.960;-0.749416;-0.428911
2.970;-0.758443;-0.428548
2.980;-0.763925;-0.429115
2.990;-0.766146;-0.430298
3.000;-0.765893;-0.431780
3.010;-0.764245;-0.433316
3.020;-0.762350;-0.434751
3.030;-0.761221;-0.436003
3.040;-0.761596;-0.437036
3.050;-0.763866;-0.437828
3.060;-0.768089;-0.438337
3.070;-0.774103;-0.438496
3.080;-0.781668;-0.438246
3.090;-0.790570;-0.437590
3.100;-0.800641;-0.436640
3.110;-0.811682;-0.435629
3.120;-0.823357;-0.434843
3.130;-0.835130;-0.434536
3.140;-0.846286;-0.434851
3.150;-0.856035;-0.435803
3.160;-0.863677;-0.437285
3.170;-0.868769;-0.439089
3.180;-0.871245;-0.440937
3.190;-0.871451;-0.442524
3.200;-0.870064;-0.443594
3.210;-0.867919;-0.444013
3.220;-0.865822;-0.443823
3.230;-0.864397;-0.443253
3.240;-0.864005;-0.442688
3.250;-0.864701;-0.442602
3.260;-0.866260;-0.443467
3.270;-0.868231;-0.445642
3.280;-0.870033;-0.449297
3.290;-0.871021;-0.454380
3.300;-0.870552;-0.460637
3.310;-0.868026;-0.467685
3.320;-0.862931;-0.475090
3.330;-0.854885;-0.482445
3.340;-0.843706;-0.489423
3.350;-0.829462;-0.495835
3.360;-0.812493;-0.501694
3.370;-0.793376;-0.507242
3.380;-0.772846;-0.512907
3.390;-0.751716;-0.519169
3.400;-0.730800;-0.526418
3.410;-0.710833;-0.534840
3.420;-0.692398;-0.544337
3.430;-0.675858;-0.554520
3.440;-0.661306;-0.564790
3.450;-0.648576;-0.574532
3.460;-0.637325;-0.583334
3.470;-0.627195;-0.591120
3.480;-0.618008;-0.598108
3.490;-0.609939;-0.604633
3.500;-0.603562;-0.610963
3.510;-0.599727;-0.617201
3.520;-0.599294;-0.623327
3.530;-0.602810;-0.629285
3.540;-0.610299;-0.635061
3.550;-0.621235;-0.640679
3.560;-0.634710;-0.646179
3.570;-0.649709;-0.651590
3.580;-0.665366;-0.656930
3.590;-0.681151;-0.662192
3.600;-0.696940;-0.667318
3.610;-0.712993;-0.672169
3.620;-0.729839;-0.676546
3.630;-0.748107;-0.680266
3.640;-0.768314;-0.683256
3.650;-0.790670;-0.685611
3.660;-0.814946;-0.687581
3.670;-0.840449;-0.689497
3.680;-0.866116;-0.691677
3.690;-0.890711;-0.694340
3.700;-0.913038;-0.697563
3.710;-0.932139;-0.701276
3.720;-0.947381;-0.705316
3.730;-0.958486;-0.709503
3.740;-0.965499;-0.713747
3.750;-0.968768;-0.718093
3.760;-0.968909;-0.722699
3.770;-0.966762;-0.727720
3.780;-0.963313;-0.733189
3.790;-0.959560;-0.738951
3.800;-0.956351;-0.744701
3.810;-0.954250;-0.750081
3.820;-0.953485;-0.754783
3.830;-0.954012;-0.758642
3.840;-0.955637;-0.761713
3.850;-0.958141;-0.764286
3.860;-0.961359;-0.766808
3.870;-0.965206;-0.769711
3.880;-0.969669;-0.773210
3.890;-0.974796;-0.777203
3.900;-0.980658;-0.781318
3.910;-0.987293;-0.785108
3.920;-0.994648;-0.788273
3.930;-1.002580;-0.790782
3.940;-1.010935;-0.792821
3.950;-1.019663;-0.794610
3.960;-1.028872;-0.796213
3.970;-1.038764;-0.797482
3.980;-1.049483;-0.798160
3.990;-1.060953;-0.798103
4.000;-1.072810;-0.797465
4.010;-1.084439;-0.796751
4.020;-1.095106;-0.796663
4.030;-1.104125;-0.797836
4.040;-1.111005;-0.800567
4.050;-1.115580;-0.804691
4.060;-1.118059;-0.809624
4.070;-1.119018;-0.814568
4.080;-1.119301;-0.818756
4.090;-1.119879;-0.821673
4.100;-1.121678;-0.823152
4.110;-1.125425;-0.823364
4.120;-1.131534;-0.822702
4.130;-1.140039;-0.821634
4.140;-1.150609;-0.820564
4.150;-1.162641;-0.819749
4.160;-1.175421;-0.819304
4.170;-1.188317;-0.819253
4.180;-1.200932;-0.819590
4.190;-1.213173;-0.820306
4.200;-1.225201;-0.821355
4.210;-1.237295;-0.822610
4.220;-1.249688;-0.823841
4.230;-1.262433;-0.824754
4.240;-1.275373;-0.825090
4.250;-1.288181;-0.824725
4.260;-1.300465;-0.823714
4.270;-1.311872;-0.822252
4.280;-1.322179;-0.820554
4.290;-1.331333;-0.818725
4.300;-1.339460;-0.816696
4.310;-1.346819;-0.814281
4.320;-1.353696;-0.811305
4.330;-1.360299;-0.807747
4.340;-1.366697;-0.803805
4.350;-1.372880;-0.799876
4.360;-1.378887;-0.796433
4.370;-1.384907;-0.793852
4.380;-1.391274;-0.792263
4.390;-1.398348;-0.791529
4.400;-1.406355;-0.791338
4.410;-1.415247;-0.791363
4.420;-1.424684;-0.791379
4.430;-1.434139;-0.791300
4.440;-1.443107;-0.791147
4.450;-1.451308;-0.790975
4.460;-1.458809;-0.790805
4.470;-1.466004;-0.790601
4.480;-1.473479;-0.790303
4.490;-1.481804;-0.789910
4.500;-1.491370;-0.789565
4.510;-1.502322;-0.789560
4.520;-1.514594;-0.790229
4.530;-1.528015;-0.791783
4.540;-1.542420;-0.794173
4.550;-1.557710;-0.797063
4.560;-1.573848;-0.799908
4.570;-1.590798;-0.802093
4.580;-1.608450;-0.803085
4.590;-1.626617;-0.802568
4.600;-1.645113;-0.800522
4.610;-1.663867;-0.797249
4.620;-1.682978;-0.793306
4.630;-1.702664;-0.789332
4.640;-1.723117;-0.785820
4.650;-1.744343;-0.782916
4.660;-1.766075;-0.780328
4.670;-1.787814;-0.777414
4.680;-1.808964;-0.773389
4.690;-1.829021;-0.767589
4.700;-1.847704;-0.759669
4.710;-1.865003;-0.749684
4.720;-1.881110;-0.738027
4.730;-1.896303;-0.725289
4.740;-1.910838;-0.712095
4.750;-1.924911;-0.698959
4.760;-1.938681;-0.686193
4.770;-1.952299;-0.673880
4.780;-1.965911;-0.661899
4.790;-1.979600;-0.649993
4.800;-1.993323;-0.637861
4.810;-2.006867;-0.625242
4.820;-2.019875;-0.612000
4.830;-2.031905;-0.598174
4.840;-2.042507;-0.583965
4.850;-2.051301;-0.569681
4.860;-2.058060;-0.555670
4.870;-2.062806;-0.542287
4.880;-2.065856;-0.529877
4.890;-2.067797;-0.518748
4.900;-2.069371;-0.509113
4.910;-2.071319;-0.501033
4.920;-2.074246;-0.494406
4.930;-2.078536;-0.489037
4.940;-2.084318;-0.484749
4.950;-2.091467;-0.481469
4.960;-2.099636;-0.479217
4.970;-2.108327;-0.478014
4.980;-2.116999;-0.477800
4.990;-2.125188;-0.478427
5.000;-2.132602;-0.479733
5.010;-2.139143;-0.481627
5.020;-2.144855;-0.484141
5.030;-2.149821;-0.487417
5.040;-2.154088;-0.491653
5.050;-2.157666;-0.497014
5.060;-2.160570;-0.503552
5.070;-2.162848;-0.511109
5.080;-2.164542;-0.519285
5.090;-2.165592;-0.527484
5.100;-2.165783;-0.535059
5.110;-2.164788;-0.541487
5.120;-2.162302;-0.546489
5.130;-2.158207;-0.550071
5.140;-2.152662;-0.552484
5.150;-2.146079;-0.554130
5.160;-2.139011;-0.555445
5.170;-2.131992;-0.556768
5.180;-2.125402;-0.558265
5.190;-2.119389;-0.559917
5.200;-2.113872;-0.561599
5.210;-2.108615;-0.563171
5.220;-2.103327;-0.564537
5.230;-2.097778;-0.565646
5.240;-2.091878;-0.566460
5.250;-2.085745;-0.566912
5.260;-2.079722;-0.566874
5.270;-2.074333;-0.566131
5.280;-2.070146;-0.564394
5.290;-2.067573;-0.561378
5.300;-2.066656;-0.556949
5.310;-2.066943;-0.551279
5.320;-2.067536;-0.544918
5.330;-2.067316;-0.538725
5.340;-2.065240;-0.533634
5.350;-2.060586;-0.530343
5.360;-2.053013;-0.529069
5.370;-2.042428;-0.529502
5.380;-2.028742;-0.530987
5.390;-2.011652;-0.532816
5.400;-1.990562;-0.534487
5.410;-1.964698;-0.535818
5.420;-1.933388;-0.536906
5.430;-1.896416;-0.537998
5.440;-1.854292;-0.539337
5.450;-1.808353;-0.541031
5.460;-1.760626;-0.543003
5.470;-1.713501;-0.545061
5.480;-1.669314;-0.547066
5.490;-1.629943;-0.549088
5.500;-1.596503;-0.551429
5.510;-1.569204;-0.554479
5.520;-1.547401;-0.558502
5.530;-1.529840;-0.563471
5.540;-1.515027;-0.569045
5.550;-1.501612;-0.574689
5.560;-1.488687;-0.579856
5.570;-1.475910;-0.584117
5.580;-1.463473;-0.587212
5.590;-1.451944;-0.589022
5.600;-1.442048;-0.589524
5.610;-1.434402;-0.588774
5.620;-1.429280;-0.586907
5.630;-1.426443;-0.584139
5.640;-1.425128;-0.580765
5.650;-1.424184;-0.577142
5.660;-1.422354;-0.573705
5.670;-1.418578;-0.570975
5.680;-1.412220;-0.569514
5.690;-1.403140;-0.569782
5.700;-1.391616;-0.571922
5.710;-1.378217;-0.575584
5.720;-1.363681;-0.579903
5.730;-1.348864;-0.583672
5.740;-1.334722;-0.585654
5.750;-1.322300;-0.584913
5.760;-1.312669;-0.581063
5.770;-1.306787;-0.574349
5.780;-1.305316;-0.565519
5.790;-1.308462;-0.555545
5.800;-1.315907;-0.545297
5.810;-1.326887;-0.535320
5.820;-1.340399;-0.525801
5.830;-1.355464;-0.516712
5.840;-1.371340;-0.508030
5.850;-1.387602;-0.499892
5.860;-1.404117;-0.492590
5.870;-1.420963;-0.486406
5.880;-1.438392;-0.481410
5.890;-1.456856;-0.477341
5.900;-1.477047;-0.473638
5.910;-1.499851;-0.469582
5.920;-1.526166;-0.464472
5.930;-1.556603;-0.457769
5.940;-1.591198;-0.449191
5.950;-1.629241;-0.438785
5.960;-1.669288;-0.426953
5.970;-1.709331;-0.414399
5.980;-1.747114;-0.401961
5.990;-1.780510;-0.390375
6.000;-1.807923;-0.380069
6.010;-1.828560;-0.371072
6.020;-1.842531;-0.363065
6.030;-1.850712;-0.355505
6.040;-1.854471;-0.347773
6.050;-1.855334;-0.339341
6.060;-1.854676;-0.329927
6.070;-1.853525;-0.319611
6.080;-1.852488;-0.308837
6.090;-1.851833;-0.298282
6.100;-1.851674;-0.288621
6.110;-1.852174;-0.280293
6.120;-1.853652;-0.273355
6.130;-1.856534;-0.267487
6.140;-1.861151;-0.262138
6.150;-1.867520;-0.256713
6.160;-1.875243;-0.250696
6.170;-1.883629;-0.243688
6.180;-1.891946;-0.235427
6.190;-1.899691;-0.225795
6.200;-1.906740;-0.214847
6.210;-1.913304;-0.202827
6.220;-1.919741;-0.190164
6.230;-1.926330;-0.177453
6.240;-1.933123;-0.165382
6.250;-1.939970;-0.154608
6.260;-1.946648;-0.145603
6.270;-1.953036;-0.138524
6.280;-1.959211;-0.133151
6.290;-1.965446;-0.128917
6.300;-1.972119;-0.125035
6.310;-1.979602;-0.120681
6.320;-1.988148;-0.115208
6.330;-1.997815;-0.108291
6.340;-2.008444;-0.099958
6.350;-2.019685;-0.090486
6.360;-2.031067;-0.080218
6.370;-2.042080;-0.069421
6.380;-2.052242;-0.058290
6.390;-2.061144;-0.047061
6.400;-2.068462;-0.036161
6.410;-2.073946;-0.026252
6.420;-2.077374;-0.018158
6.430;-2.078533;-0.012680
6.440;-2.077232;-0.010385
6.450;-2.073390;-0.011423
6.460;-2.067143;-0.015438
6.470;-2.058925;-0.021601
6.480;-2.049459;-0.028798
6.490;-2.039641;-0.035918
6.500;-2.030328;-0.042188
6.510;-2.022129;-0.047412
6.520;-2.015245;-0.052037
6.530;-2.009454;-0.056968
6.540;-2.004216;-0.063232
6.550;-1.998885;-0.071608
6.560;-1.992922;-0.082364
6.570;-1.986036;-0.095190
6.580;-1.978201;-0.109330
6.590;-1.969562;-0.123870
6.600;-1.960278;-0.138037
6.610;-1.950395;-0.151402
6.620;-1.939782;-0.163949
6.630;-1.928146;-0.175998
6.640;-1.915108;-0.188053
6.650;-1.900307;-0.200630
6.660;-1.883495;-0.214123
6.670;-1.864604;-0.228748
6.680;-1.843762;-0.244530
6.690;-1.821244;-0.261322
6.700;-1.797405;-0.278816
6.710;-1.772625;-0.296574
6.720;-1.747301;-0.314099
6.730;-1.721879;-0.330949
6.740;-1.696885;-0.346850
6.750;-1.672900;-0.361765
6.760;-1.650493;-0.375862
6.770;-1.630141;-0.389436
6.780;-1.612192;-0.402806
6.790;-1.596872;-0.416220
6.800;-1.584292;-0.429799
6.810;-1.574410;-0.443493
6.820;-1.566964;-0.457085
6.830;-1.561419;-0.470275
6.840;-1.556983;-0.482840
6.850;-1.552706;-0.494772
6.860;-1.547663;-0.506317
6.870;-1.541169;-0.517883
6.880;-1.532951;-0.529887
6.890;-1.523212;-0.542629
6.900;-1.512527;-0.556224
6.910;-1.501632;-0.570557
6.920;-1.491171;-0.585278
6.930;-1.481554;-0.599849
6.940;-1.472960;-0.613662
6.950;-1.465482;-0.626217
6.960;-1.459303;-0.637260
6.970;-1.454766;-0.646842
6.980;-1.452299;-0.655288
6.990;-1.452202;-0.663098
7.000;-1.454429;-0.670859
7.010;-1.458474;-0.679171
7.020;-1.463434;-0.688571
7.030;-1.468237;-0.699462
7.040;-1.471933;-0.712030
7.050;-1.473906;-0.726180
7.060;-1.473947;-0.741522
7.070;-1.472180;-0.757425
7.080;-1.468886;-0.773154
7.090;-1.464294;-0.788049
7.100;-1.458425;-0.801702
7.110;-1.451038;-0.814059
7.120;-1.441723;-0.825395
7.130;-1.430107;-0.836158
7.140;-1.416094;-0.846729
7.150;-1.400045;-0.857220
7.160;-1.382809;-0.867391
7.170;-1.365591;-0.876773
7.180;-1.349702;-0.884913
7.190;-1.336287;-0.891632
7.200;-1.326117;-0.897127
7.210;-1.319497;-0.901892
7.220;-1.316271;-0.906497
7.230;-1.315903;-0.911372
7.240;-1.317608;-0.916663
7.250;-1.320534;-0.922204
7.260;-1.323969;-0.927596
7.270;-1.327521;-0.932363
7.280;-1.331217;-0.936103
7.290;-1.335452;-0.938604
7.300;-1.340830;-0.939873
7.310;-1.347958;-0.940118
7.320;-1.357257;-0.939693
7.330;-1.368862;-0.939004
7.340;-1.382617;-0.938387
7.350;-1.398172;-0.937966
7.360;-1.415121;-0.937555
7.370;-1.433150;-0.936673
7.380;-1.452142;-0.934679
7.390;-1.472213;-0.930995
7.400;-1.493648;-0.925309
7.410;-1.516738;-0.917688
7.420;-1.541565;-0.908558
7.430;-1.567843;-0.898561
7.440;-1.594904;-0.888363
7.450;-1.621842;-0.878471
7.460;-1.647734;-0.869159
7.470;-1.671820;-0.860484
7.480;-1.693606;-0.852351
7.490;-1.712889;-0.844557
7.500;-1.729767;-0.836798
7.510;-1.744636;-0.828671
7.520;-1.758149;-0.819713
7.530;-1.771102;-0.809517
7.540;-1.784269;-0.797879
7.550;-1.798237;-0.784910
7.560;-1.813297;-0.771045
7.570;-1.829395;-0.756943
7.580;-1.846145;-0.743357
7.590;-1.862866;-0.731014
7.600;-1.878669;-0.720528
7.610;-1.892594;-0.712328
7.620;-1.903798;-0.706564
7.630;-1.911733;-0.703044
7.640;-1.916258;-0.701248
7.650;-1.917645;-0.700452
7.660;-1.916513;-0.699958
7.670;-1.913702;-0.699286
7.680;-1.910144;-0.698273
