Time[s];COPx[cm];COPy[cm]
0.010;-2.242796;0.679321
0.020;-2.233845;0.678996
0.030;-2.223713;0.679633
0.040;-2.211886;0.681703
0.050;-2.198887;0.684955
0.060;-2.186144;0.688489
0.070;-2.175463;0.691074
0.080;-2.168380;0.691576
0.090;-2.165649;0.689307
0.100;-2.167063;0.684203
0.110;-2.171597;0.676801
0.120;-2.177751;0.668037
0.130;-2.183944;0.658923
0.140;-2.188809;0.650236
0.150;-2.191371;0.642329
0.160;-2.191122;0.635134
0.170;-2.188029;0.628306
0.180;-2.182499;0.621414
0.190;-2.175317;0.614096
0.200;-2.167569;0.606148
0.210;-2.160526;0.597530
0.220;-2.155461;0.588340
0.230;-2.153418;0.578783
0.240;-2.154947;0.569144
0.250;-2.159927;0.559719
0.260;-2.167546;0.550694
0.270;-2.176495;0.542003
0.280;-2.185309;0.533282
0.290;-2.192751;0.523986
0.300;-2.198086;0.513599
0.310;-2.201153;0.501863
0.320;-2.202226;0.488909
0.330;-2.201795;0.475279
0.340;-2.200369;0.461842
0.350;-2.198398;0.449604
0.360;-2.196292;0.439446
0.370;-2.194483;0.431849
0.380;-2.193450;0.426736
0.390;-2.193686;0.423485
0.400;-2.195628;0.421130
0.410;-2.199582;0.418661
0.420;-2.205657;0.415326
0.430;-2.213687;0.410837
0.440;-2.223148;0.405399
0.450;-2.233104;0.399555
0.460;-2.242265;0.393914
0.470;-2.249169;0.388908
0.480;-2.252463;0.384670
0.490;-2.251192;0.381029
0.500;-2.244997;0.377574
0.510;-2.234177;0.373744
0.520;-2.219632;0.368959
0.530;-2.202713;0.362767
0.540;-2.185019;0.355009
0.550;-2.168130;0.345923
0.560;-2.153303;0.336154
0.570;-2.141183;0.326610
0.580;-2.131626;0.318169
0.590;-2.123733;0.311338
0.600;-2.116128;0.306034
0.610;-2.107400;0.301597
0.620;-2.096508;0.297076
0.630;-2.082983;0.291625
0.640;-2.066877;0.284841
0.650;-2.048589;0.276874
0.660;-2.028709;0.268280
0.670;-2.007999;0.259719
0.680;-1.987465;0.251642
0.690;-1.968377;0.244150
0.700;-1.952118;0.237061
0.710;-1.939841;0.230140
0.720;-1.932085;0.223296
0.730;-1.928574;0.216620
0.740;-1.928314;0.210243
0.750;-1.929940;0.204162
0.760;-1.932126;0.198206
0.770;-1.933844;0.192182
0.780;-1.934406;0.186079
0.790;-1.933380;0.180173
0.800;-1.930512;0.174944
0.810;-1.925742;0.170821
0.820;-1.919280;0.167906
0.830;-1.911660;0.165834
0.840;-1.903712;0.163853
0.850;-1.896440;0.161133
0.860;-1.890860;0.157127
0.870;-1.887862;0.151784
0.880;-1.888160;0.145523
0.890;-1.892260;0.138990
0.900;-1.900411;0.132766
0.910;-1.912499;0.127165
0.920;-1.927956;0.122196
0.930;-1.945740;0.117689
0.940;-1.964444;0.113512
0.950;-1.982542;0.109734
0.960;-1.998700;0.106659
0.970;-2.012091;0.104713
0.980;-2.022616;0.104253
0.990;-2.030980;0.105382
1.000;-2.038588;0.107880
1.010;-2.047245;0.111265
1.020;-2.058745;0.114945
1.030;-2.074449;0.118376
1.040;-2.094985;0.121186
1.050;-2.120156;0.123276
1.060;-2.149090;0.124891
1.070;-2.180531;0.126622
1.080;-2.213140;0.129266
1.090;-2.245662;0.133583
1.100;-2.276936;0.140004
1.110;-2.305818;0.148446
1.120;-2.331152;0.158285
1.130;-2.351878;0.168512
1.140;-2.367253;0.178021
1.150;-2.377096;0.185931
1.160;-2.381896;0.191857
1.170;-2.382741;0.196022
1.180;-2.381083;0.199169
1.190;-2.378392;0.202308
1.200;-2.375766;0.206419
1.210;-2.373635;0.212208
1.220;-2.371683;0.220000
1.230;-2.369071;0.229760
1.240;-2.364851;0.241215
1.250;-2.358378;0.253974
1.260;-2.349541;0.267582
1.270;-2.338738;0.281489
1.280;-2.326657;0.295011
1.290;-2.314030;0.307356
1.300;-2.301491;0.317743
1.310;-2.289612;0.325609
1.320;-2.279020;0.330793
1.330;-2.270462;0.333612
1.340;-2.264736;0.334751
1.350;-2.262504;0.335012
1.360;-2.264069;0.335098
1.370;-2.269226;0.335520
1.380;-2.277221;0.336625
1.390;-2.286824;0.338632
1.400;-2.296528;0.341582
1.410;-2.304795;0.345249
1.420;-2.310299;0.349120
1.430;-2.312100;0.352504
1.440;-2.309735;0.354724
1.450;-2.303229;0.355290
1.460;-2.293069;0.353981
1.470;-2.280158;0.350837
1.480;-2.265715;0.346114
1.490;-2.251095;0.340209
1.500;-2.237490;0.333599
1.510;-2.225624;0.326776
1.520;-2.215551;0.320215
1.530;-2.206673;0.314335
1.540;-2.197988;0.309462
1.550;-2.188477;0.305773
1.560;-2.177449;0.303271
1.570;-2.164666;0.301806
1.580;-2.150243;0.301152
1.590;-2.134432;0.301067
1.600;-2.117470;0.301314
1.610;-2.099571;0.301668
1.620;-2.081030;0.301936
1.630;-2.062267;0.302014
1.640;-2.043778;0.301967
1.650;-2.025982;0.302085
1.660;-2.009099;0.302834
1.670;-1.993073;0.304688
1.680;-1.977570;0.307899
1.690;-1.962064;0.312331
1.700;-1.945994;0.317457
1.710;-1.928958;0.322501
1.720;-1.910874;0.326694
1.730;-1.892037;0.329516
1.740;-1.873078;0.330842
1.750;-1.854866;0.330921
1.760;-1.838384;0.330192
1.770;-1.824603;0.329073
1.780;-1.814309;0.327803
1.790;-1.807871;0.326414
1.800;-1.804982;0.324812
1.810;-1.804519;0.322911
1.820;-1.804643;0.320783
1.830;-1.803187;0.318733
1.840;-1.798207;0.317246
1.850;-1.788512;0.316801
1.860;-1.773978;0.317632
1.870;-1.755607;0.319599
1.880;-1.735303;0.322227
1.890;-1.715449;0.324894
1.900;-1.698375;0.327018
1.910;-1.685880;0.328166
1.920;-1.678942;0.328091
1.930;-1.677677;0.326726
1.940;-1.681529;0.324198
1.950;-1.689574;0.320821
1.960;-1.700815;0.317074
1.970;-1.714346;0.313536
1.980;-1.729370;0.310798
1.990;-1.745147;0.309366
2.000;-1.761002;0.309565
2.010;-1.776461;0.311484
2.020;-1.791421;0.314964
2.030;-1.806224;0.319613
2.040;-1.821524;0.324842
2.050;-1.837993;0.329923
2.060;-1.855990;0.334077
2.070;-1.875366;0.336575
2.080;-1.895506;0.336854
2.090;-1.915607;0.334654
2.100;-1.935039;0.330128
2.110;-1.953597;0.323833
2.120;-1.971539;0.316562
2.130;-1.989426;0.309085
2.140;-2.007875;0.301932
2.150;-2.027308;0.295306
2.160;-2.047780;0.289138
2.170;-2.068918;0.283225
2.180;-2.090001;0.277357
2.190;-2.110160;0.271391
2.200;-2.128644;0.265227
2.210;-2.145059;0.258748
2.220;-2.159516;0.251799
2.230;-2.172655;0.244276
2.240;-2.185555;0.236273
2.250;-2.199566;0.228186
2.260;-2.216056;0.220648
2.270;-2.236128;0.214304
2.280;-2.260358;0.209567
2.290;-2.288653;0.206504
2.300;-2.320236;0.204927
2.310;-2.353734;0.204564
2.320;-2.387344;0.205209
2.330;-2.419063;0.206804
2.340;-2.447005;0.209453
2.350;-2.469785;0.213402
2.360;-2.486844;0.218943
2.370;-2.498586;0.226219
2.380;-2.506207;0.235008
2.390;-2.511271;0.244620
2.400;-2.515173;0.254038
2.410;-2.518691;0.262263
2.420;-2.521777;0.268687
2.430;-2.523646;0.273294
2.440;-2.523126;0.276569
2.450;-2.519136;0.279218
2.460;-2.511122;0.281849
2.470;-2.499292;0.284834
2.480;-2.484582;0.288348
2.490;-2.468371;0.292528
2.500;-2.452097;0.297565
2.510;-2.436915;0.303698
2.520;-2.423525;0.311092
2.530;-2.412167;0.319693
2.540;-2.402736;0.329111
2.550;-2.394908;0.338620
2.560;-2.388238;0.347339
2.570;-2.382209;0.354561
2.580;-2.376283;0.360077
2.590;-2.369962;0.364324
2.600;-2.362878;0.368245
2.610;-2.354891;0.372912
2.620;-2.346152;0.379060
2.630;-2.337106;0.386732
2.640;-2.328397;0.395170
2.650;-2.320696;0.403034
2.660;-2.314499;0.408859
2.670;-2.309999;0.411603
2.680;-2.307086;0.411052
2.690;-2.305477;0.407913
2.700;-2.304872;0.403518
2.710;-2.305084;0.399262
2.720;-2.306074;0.396019
2.730;-2.307915;0.393864
2.740;-2.310699;0.392221
2.750;-2.314431;0.390366
2.760;-2.318933;0.387944
2.770;-2.323809;0.385196
2.780;-2.328458;0.382807
2.790;-2.332139;0.381527
2.800;-2.334043;0.381765
2.810;-2.333408;0.383348
2.820;-2.329669;0.385508
2.830;-2.322637;0.387132
2.840;-2.312646;0.387181
2.850;-2.300583;0.385097
2.860;-2.287781;0.380987
2.870;-2.275788;0.375516
2.880;-2.266088;0.369555
2.890;-2.259850;0.363800
2.900;-2.257760;0.358548
2.910;-2.259943;0.353723
2.920;-2.266008;0.349099
2.930;-2.275175;0.344530
2.940;-2.286468;0.340033
2.950;-2.298930;0.335649
2.960;-2.311777;0.331209
2.970;-2.324480;0.326208
2.980;-2.336761;0.319910
2.990;-2.348565;0.311631
3.000;-2.360034;0.301011
3.010;-2.371488;0.288133
3.020;-2.383390;0.273471
3.030;-2.396271;0.257757
3.040;-2.410632;0.241831
3.050;-2.426860;0.226502
3.060;-2.445162;0.212430
3.070;-2.465498;0.200057
3.080;-2.487509;0.189593
3.090;-2.510474;0.181050
3.100;-2.533334;0.174293
3.110;-2.554804;0.169090
3.120;-2.573552;0.165155
3.130;-2.588386;0.162168
3.140;-2.598416;0.159789
3.150;-2.603165;0.157683
3.160;-2.602599;0.155566
3.170;-2.597104;0.153280
3.180;-2.587432;0.150879
3.190;-2.574635;0.148682
3.200;-2.559965;0.147186
3.210;-2.544727;0.146854
3.220;-2.530117;0.147874
3.230;-2.517050;0.150030
3.240;-2.506040;0.152764
3.250;-2.497146;0.155365
3.260;-2.490071;0.157182
3.270;-2.484404;0.157798
3.280;-2.479918;0.157114
3.290;-2.476762;0.155346
3.300;-2.475449;0.152929
3.310;-2.476628;0.150368
3.320;-2.480800;0.148087
3.330;-2.488129;0.146332
3.340;-2.498439;0.145166
3.350;-2.511352;0.144502
3.360;-2.526457;0.144143
3.370;-2.543396;0.143801
3.380;-2.561873;0.143140
3.390;-2.581619;0.141850
3.400;-2.602361;0.139722
3.410;-2.623807;0.136712
3.420;-2.645594;0.132942
3.430;-2.667235;0.128680
3.440;-2.688097;0.124317
3.450;-2.707466;0.120318
3.460;-2.724697;0.117127
3.470;-2.739353;0.115037
3.480;-2.751264;0.114097
3.490;-2.760444;0.114139
3.500;-2.766953;0.114912
3.510;-2.770765;0.116247
3.520;-2.771760;0.118152
3.530;-2.769840;0.120837
3.540;-2.765138;0.124673
3.550;-2.758185;0.130088
3.560;-2.749953;0.137365
3.570;-2.741703;0.146403
3.580;-2.734654;0.156548
3.590;-2.729599;0.166627
3.600;-2.726652;0.175225
3.610;-2.725266;0.181116
3.620;-2.724552;0.183690
3.630;-2.723712;0.183173
3.640;-2.722377;0.180581
3.650;-2.720671;0.177422
3.660;-2.718993;0.175303
3.670;-2.717659;0.175576
3.680;-2.716623;0.179091
3.690;-2.715456;0.186072
3.700;-2.713619;0.196119
3.710;-2.710827;0.208325
3.720;-2.707308;0.221504
3.730;-2.703802;0.234452
3.740;-2.701332;0.246148
3.750;-2.700847;0.255870
3.760;-2.702890;0.263225
3.770;-2.707418;0.268120
3.780;-2.713823;0.270697
3.790;-2.721137;0.271240
3.800;-2.728321;0.270052
3.810;-2.734542;0.267383
3.820;-2.739325;0.263463
3.830;-2.742580;0.258640
3.840;-2.744516;0.253512
3.850;-2.745498;0.248945
3.860;-2.745884;0.245906
3.870;-2.745880;0.245185
3.880;-2.745432;0.247128
3.890;-2.744169;0.251501
3.900;-2.741445;0.257544
3.910;-2.736493;0.264204
3.920;-2.728687;0.270472
3.930;-2.717827;0.275692
3.940;-2.704337;0.279700
3.950;-2.689262;0.282704
3.960;-2.674039;0.285018
3.970;-2.660065;0.286811
3.980;-2.648250;0.288039
3.990;-2.638720;0.288563
4.000;-2.630819;0.288359
4.010;-2.623409;0.287670
4.020;-2.615329;0.286990
4.030;-2.605806;0.286844
4.040;-2.594653;0.287463
4.050;-2.582190;0.288553
4.060;-2.568962;0.289293
4.070;-2.555425;0.288574
4.080;-2.541773;0.285354
4.090;-2.527982;0.279007
4.100;-2.514005;0.269547
4.110;-2.499988;0.257653
4.120;-2.486340;0.244488
4.130;-2.473628;0.231360
4.140;-2.462347;0.219366
4.150;-2.452723;0.209147
4.160;-2.444654;0.200825
4.170;-2.437814;0.194090
4.180;-2.431828;0.188397
4.190;-2.426388;0.183176
4.200;-2.421259;0.177959
4.210;-2.416194;0.172418
4.220;-2.410839;0.166340
4.230;-2.404724;0.159643
4.240;-2.397347;0.152418
4.250;-2.388335;0.144960
4.260;-2.377550;0.137688
4.270;-2.365104;0.130984
4.280;-2.351265;0.125032
4.290;-2.336288;0.119755
4.300;-2.320276;0.114915
4.310;-2.303138;0.110301
4.320;-2.284696;0.105891
4.330;-2.264900;0.101852
4.340;-2.244046;0.098401
4.350;-2.222897;0.095634
4.360;-2.202595;0.093436
4.370;-2.184364;0.091522
4.380;-2.169115;0.089555
4.390;-2.157151;0.087274
4.400;-2.148109;0.084546
4.410;-2.141165;0.081362
4.420;-2.135407;0.077790
4.430;-2.130170;0.073962
4.440;-2.125213;0.070084
4.450;-2.120647;0.066422
4.460;-2.116698;0.063271
4.470;-2.113439;0.060922
4.480;-2.110669;0.059680
4.490;-2.107981;0.059893
4.500;-2.104962;0.061949
4.510;-2.101380;0.066190
4.520;-2.097262;0.072767
4.530;-2.092843;0.081512
4.540;-2.088476;0.091864
4.550;-2.084565;0.102944
4.560;-2.081559;0.113746
4.570;-2.079976;0.123413
4.580;-2.080353;0.131489
4.590;-2.083110;0.138062
4.600;-2.088344;0.143737
4.610;-2.095674;0.149448
4.620;-2.104250;0.156181
4.630;-2.112950;0.164683
4.640;-2.120697;0.175256
4.650;-2.126745;0.187662
4.660;-2.130851;0.201175
4.670;-2.133283;0.214780
4.680;-2.134709;0.227471
4.690;-2.135991;0.238548
4.700;-2.137944;0.247790
4.710;-2.141104;0.255452
4.720;-2.145580;0.262110
4.730;-2.151062;0.268446
4.740;-2.156958;0.275046
4.750;-2.162584;0.282301
4.760;-2.167320;0.290429
4.770;-2.170688;0.299546
4.780;-2.172390;0.309696
4.790;-2.172300;0.320809
4.800;-2.170443;0.332631
4.810;-2.166957;0.344722
4.820;-2.162083;0.356541
4.830;-2.156182;0.367609
4.840;-2.149754;0.377672
4.850;-2.143404;0.386811
4.860;-2.137738;0.395402
4.870;-2.133258;0.403936
4.880;-2.130296;0.412732
4.890;-2.129050;0.421678
4.900;-2.129693;0.430122
4.910;-2.132484;0.437011
4.920;-2.137819;0.441242
4.930;-2.146180;0.442084
4.940;-2.157981;0.439469
4.950;-2.173372;0.434036
4.960;-2.192084;0.426922
4.970;-2.213415;0.419396
4.980;-2.236402;0.412491
4.990;-2.260128;0.406765
5.000;-2.284046;0.402251
5.010;-2.308162;0.398576
5.020;-2.332942;0.395191
5.030;-2.358981;0.391592
5.040;-2.386571;0.387476
5.050;-2.415372;0.382764
5.060;-2.444360;0.377541
5.070;-2.472074;0.372006
5.080;-2.497058;0.366482
5.090;-2.518324;0.361432
5.100;-2.535623;0.357400
5.110;-2.549428;0.354827
5.120;-2.560646;0.353843
5.130;-2.570179;0.354191
5.140;-2.578476;0.355348
5.150;-2.585290;0.356782
5.160;-2.589733;0.358194
5.170;-2.590631;0.359607
5.180;-2.587017;0.361303
5.190;-2.578539;0.363652
5.200;-2.565618;0.366950
5.210;-2.549344;0.371303
5.220;-2.531193;0.376578
5.230;-2.512710;0.382436
5.240;-2.495277;0.388416
5.250;-2.479988;0.394060
5.260;-2.467625;0.398992
5.270;-2.458697;0.402933
5.280;-2.453507;0.405645
5.290;-2.452231;0.406884
5.300;-2.454978;0.406416
5.310;-2.461794;0.404118
5.320;-2.472595;0.400122
5.330;-2.487071;0.394898
5.340;-2.504596;0.389234
5.350;-2.524146;0.384061
5.360;-2.544276;0.380194
5.370;-2.563175;0.378081
5.380;-2.578864;0.377689
5.390;-2.589539;0.378603
5.400;-2.593965;0.380285
5.410;-2.591760;0.382359
5.420;-2.583475;0.384778
5.430;-2.570454;0.387786
5.440;-2.554581;0.391705
5.450;-2.537968;0.396649
5.460;-2.522650;0.402321
5.470;-2.510300;0.407978
5.480;-2.502014;0.412587
5.490;-2.498185;0.415122
5.500;-2.498478;0.414906
5.510;-2.501920;0.411904
5.520;-2.507055;0.406823
5.530;-2.512187;0.400959
5.540;-2.515664;0.395802
5.550;-2.516149;0.392523
5.560;-2.512838;0.391544
5.570;-2.505567;0.392344
5.580;-2.494822;0.393619
5.590;-2.481640;0.393768
5.600;-2.467399;0.391548
5.610;-2.453534;0.386599
5.620;-2.441237;0.379607
5.630;-2.431222;0.372005
5.640;-2.423639;0.365388
5.650;-2.418143;0.360900
5.660;-2.414099;0.358853
5.670;-2.410845;0.358682
5.680;-2.407918;0.359209
5.690;-2.405193;0.359058
5.700;-2.402904;0.357088
5.710;-2.401569;0.352717
5.720;-2.401884;0.346044
5.730;-2.404596;0.337764
5.740;-2.410386;0.328869
5.750;-2.419746;0.320279
5.760;-2.432883;0.312519
5.770;-2.449611;0.305601
5.780;-2.469289;0.299154
5.790;-2.490813;0.292725
5.800;-2.512776;0.286095
5.810;-2.533781;0.279414
5.820;-2.552801;0.273103
5.830;-2.569420;0.267577
5.840;-2.583803;0.262980
5.850;-2.596421;0.259105
5.860;-2.607678;0.255515
5.870;-2.617621;0.251789
5.880;-2.625887;0.247764
5.890;-2.631884;0.243650
5.900;-2.635115;0.239990
5.910;-2.635480;0.237500
5.920;-2.633423;0.236854
5.930;-2.629860;0.238498
5.940;-2.625933;0.242527
5.950;-2.622684;0.248646
5.960;-2.620782;0.256221
5.970;-2.620387;0.264403
5.980;-2.621194;0.272311
5.990;-2.622617;0.279224
6.000;-2.624048;0.284713
6.010;-2.625071;0.288670
6.020;-2.625561;0.291224
6.030;-2.625665;0.292594
6.040;-2.625681;0.292939
6.050;-2.625918;0.292247
6.060;-2.626569;0.290340
6.070;-2.627641;0.286983
6.080;-2.628970;0.282078
6.090;-2.630324;0.275837
6.100;-2.631565;0.268853
6.110;-2.632785;0.262028
6.120;-2.634342;0.256367
6.130;-2.636731;0.252676
6.140;-2.640327;0.251284
6.150;-2.645142;0.251896
6.160;-2.650709;0.253671
6.170;-2.656147;0.255494
6.180;-2.660393;0.256330
6.190;-2.662515;0.255531
6.200;-2.662011;0.252999
6.210;-2.658960;0.249169
6.220;-2.653943;0.244831
6.230;-2.647792;0.240837
6.240;-2.641259;0.237789
6.250;-2.634786;0.235835
6.260;-2.628452;0.234681
6.270;-2.622110;0.233787
6.280;-2.615574;0.232681
6.290;-2.608745;0.231222
6.300;-2.601589;0.229711
6.310;-2.594030;0.228799
6.320;-2.585842;0.229231
6.330;-2.576640;0.231514
6.340;-2.565992;0.235648
6.350;-2.553611;0.241053
6.360;-2.539568;0.246741
6.370;-2.524432;0.251666
6.380;-2.509270;0.255098
6.390;-2.495467;0.256871
6.400;-2.484415;0.257434
6.410;-2.477193;0.257726
6.420;-2.474327;0.258906
6.430;-2.475662;0.262024
6.440;-2.480382;0.267708
6.450;-2.487187;0.275931
6.460;-2.494605;0.285922
6.470;-2.501362;0.296286
6.480;-2.506665;0.305378
6.490;-2.510349;0.311848
6.500;-2.512819;0.315109
6.510;-2.514855;0.315470
6.520;-2.517360;0.313876
6.530;-2.521152;0.311454
6.540;-2.526851;0.309102
6.550;-2.534868;0.307276
6.560;-2.545439;0.305940
6.570;-2.558650;0.304631
6.580;-2.574401;0.302636
6.590;-2.592331;0.299299
6.600;-2.611726;0.294369
6.610;-2.631485;0.288202
6.620;-2.650155;0.281672
6.630;-2.666078;0.275859
6.640;-2.677665;0.271678
6.650;-2.683771;0.269612
6.660;-2.684028;0.269555
6.670;-2.678981;0.270783
6.680;-2.669948;0.272088
6.690;-2.658638;0.272096
6.700;-2.646716;0.269743
6.710;-2.635446;0.264709
6.720;-2.625529;0.257612
6.730;-2.617136;0.249807
6.740;-2.610127;0.242873
6.750;-2.604324;0.238018
6.760;-2.599741;0.235696
6.770;-2.596666;0.235596
6.780;-2.595570;0.236925
6.790;-2.596849;0.238791
6.800;-2.600522;0.240503
6.810;-2.605991;0.241676
6.820;-2.612008;0.242202
6.830;-2.616894;0.242170
6.840;-2.618946;0.241828
6.850;-2.616867;0.241570
6.860;-2.610087;0.241884
6.870;-2.598886;0.243235
6.880;-2.584329;0.245909
6.890;-2.568032;0.249896
6.900;-2.551803;0.254839
6.910;-2.537229;0.260117
6.920;-2.525328;0.265015
6.930;-2.516377;0.268956
6.940;-2.509969;0.271678
6.950;-2.505233;0.273307
6.960;-2.501106;0.274296
6.970;-2.496541;0.275263
6.980;-2.490610;0.276798
6.990;-2.482544;0.279323
7.000;-2.471763;0.283018
7.010;-2.457937;0.287842
7.020;-2.441022;0.293602
7.030;-2.421244;0.300070
7.040;-2.399013;0.307079
7.050;-2.374849;0.314581
7.060;-2.349355;0.322620
7.070;-2.323233;0.331256
7.080;-2.297276;0.340464
7.090;-2.272317;0.350072
7.100;-2.249103;0.359790
7.110;-2.228139;0.369312
7.120;-2.209530;0.378426
7.130;-2.192879;0.387060
7.140;-2.177328;0.395276
7.150;-2.161738;0.403236
7.160;-2.144994;0.411181
7.170;-2.126312;0.419425
7.180;-2.105437;0.428355
7.190;-2.082656;0.438390
7.200;-2.058643;0.449894
7.210;-2.034199;0.463073
7.220;-2.010011;0.477889
7.230;-1.986513;0.494037
7.240;-1.963907;0.510961
7.250;-1.942294;0.527896
7.260;-1.921799;0.543922
7.270;-1.902602;0.558044
7.280;-1.884834;0.569322
7.290;-1.868460;0.577012
7.300;-1.853245;0.580722
7.310;-1.838874;0.580514
7.320;-1.825142;0.576927
7.330;-1.812089;0.570889
7.340;-1.799992;0.563534
7.350;-1.789242;0.555978
7.360;-1.780191;0.549105
7.370;-1.773040;0.543397
7.380;-1.767771;0.538843
7.390;-1.764130;0.534953
7.400;-1.761673;0.530918
7.410;-1.759867;0.525864
7.420;-1.758230;0.519110
7.430;-1.756451;0.510292
7.440;-1.754489;0.499318
7.450;-1.752599;0.486258
7.460;-1.751292;0.471284
7.470;-1.751217;0.454691
7.480;-1.753007;0.436946
7.490;-1.757140;0.418682
7.500;-1.763832;0.400619
7.510;-1.772998;0.383436
7.520;-1.784287;0.367647
7.530;-1.797189;0.353514
7.540;-1.811172;0.340992
7.550;-1.825784;0.329716
7.560;-1.840684;0.319050
7.570;-1.855618;0.308198
7.580;-1.870411;0.296331
7.590;-1.884992;0.282700
7.600;-1.899434;0.266703
7.610;-1.913966;0.247952
7.620;-1.928930;0.226348
7.630;-1.944733;0.202126
7.640;-1.961791;0.175817
7.650;-1.980487;0.148129
7.660;-2.001077;0.119824
7.670;-2.023558;0.091639
7.680;-2.047487;0.064286
7.690;-2.071850;0.038483
7.700;-2.095063;0.014938
7.710;-2.115184;-0.005766
7.720;-2.130298;-0.023378
7.730;-2.138997;-0.038125
7.740;-2.140758;-0.050713
7.750;-2.136060;-0.062136
7.760;-2.126216;-0.073412
7.770;-2.112971;-0.085323
7.780;-2.098051;-0.098262
7.790;-2.082797;-0.112210
7.800;-2.068014;-0.126839
7.810;-2.053998;-0.141671
7.820;-2.040668;-0.156221
7.830;-2.027752;-0.170084
7.840;-2.014974;-0.182943
7.850;-2.002246;-0.194553
7.860;-1.989790;-0.204707
7.870;-1.978112;-0.213236
7.880;-1.967842;-0.220028
7.890;-1.959495;-0.225091
7.900;-1.953285;-0.228596
7.910;-1.949064;-0.230877
7.920;-1.946384;-0.232376
7.930;-1.944650;-0.233571
7.940;-1.943302;-0.234900
7.950;-1.941989;-0.236679
7.960;-1.940697;-0.239039
7.970;-1.939820;-0.241880
