Time[s];COPx[cm];COPy[cm]
0.010;-2.814512;0.446105
0.020;-2.818417;0.442847
0.030;-2.822527;0.439325
0.040;-2.826908;0.435377
0.050;-2.831397;0.430880
0.060;-2.835532;0.425765
0.070;-2.838578;0.420052
0.080;-2.839704;0.413879
0.090;-2.838257;0.407514
0.100;-2.834035;0.401291
0.110;-2.827417;0.395487
0.120;-2.819254;0.390196
0.130;-2.810570;0.385299
0.140;-2.802170;0.380552
0.150;-2.794323;0.375759
0.160;-2.786658;0.370921
0.170;-2.778316;0.366235
0.180;-2.768278;0.361926
0.190;-2.755712;0.358012
0.200;-2.740200;0.354186
0.210;-2.721790;0.349932
0.220;-2.700902;0.344800
0.230;-2.678150;0.338650
0.240;-2.654172;0.331723
0.250;-2.629511;0.324530
0.260;-2.604542;0.317640
0.270;-2.579417;0.311490
0.280;-2.554038;0.306262
0.290;-2.528083;0.301848
0.300;-2.501125;0.297907
0.310;-2.472845;0.293985
0.320;-2.443268;0.289696
0.330;-2.412927;0.284891
0.340;-2.382898;0.279746
0.350;-2.354634;0.274713
0.360;-2.329640;0.270342
0.370;-2.309072;0.267067
0.380;-2.293409;0.265059
0.390;-2.282317;0.264209
0.400;-2.274748;0.264204
0.410;-2.269245;0.264644
0.420;-2.264363;0.265166
0.430;-2.259056;0.265544
0.440;-2.252918;0.265761
0.450;-2.246174;0.266013
0.460;-2.239487;0.266669
0.470;-2.233664;0.268199
0.480;-2.229391;0.271083
0.490;-2.227054;0.275671
0.500;-2.226663;0.282037
0.510;-2.227875;0.289885
0.520;-2.230101;0.298599
0.530;-2.232647;0.307432
0.540;-2.234886;0.315726
0.550;-2.236372;0.323058
0.560;-2.236894;0.329259
0.570;-2.236436;0.334356
0.580;-2.235079;0.338525
0.590;-2.232904;0.342077
0.600;-2.229933;0.345451
0.610;-2.226151;0.349141
0.620;-2.221603;0.353562
0.630;-2.216501;0.358903
0.640;-2.211272;0.365033
0.650;-2.206484;0.371521
0.660;-2.202683;0.377790
0.670;-2.200206;0.383319
0.680;-2.199059;0.387846
0.690;-2.198907;0.391451
0.700;-2.199177;0.394496
0.710;-2.199252;0.397456
0.720;-2.198690;0.400711
0.730;-2.197400;0.404398
0.740;-2.195661;0.408374
0.750;-2.193997;0.412322
0.760;-2.192948;0.415912
0.770;-2.192829;0.418947
0.780;-2.193579;0.421392
0.790;-2.194766;0.423300
0.800;-2.195747;0.424724
0.810;-2.195908;0.425677
0.820;-2.194895;0.426173
0.830;-2.192715;0.426280
0.840;-2.189688;0.426119
0.850;-2.186291;0.425795
0.860;-2.182983;0.425325
0.870;-2.180060;0.424613
0.880;-2.177584;0.423506
0.890;-2.175371;0.421911
0.900;-2.173057;0.419891
0.910;-2.170264;0.417712
0.920;-2.166807;0.415779
0.930;-2.162859;0.414502
0.940;-2.158956;0.414113
0.950;-2.155814;0.414524
0.960;-2.154037;0.415296
0.970;-2.153862;0.415756
0.980;-2.155058;0.415241
0.990;-2.157049;0.413312
1.000;-2.159176;0.409872
1.010;-2.160994;0.405134
1.020;-2.162470;0.399498
1.030;-2.163992;0.393401
1.040;-2.166224;0.387165
1.050;-2.169897;0.380900
1.060;-2.175631;0.374466
1.070;-2.183841;0.367537
1.080;-2.194702;0.359745
1.090;-2.208140;0.350882
1.100;-2.223845;0.341055
1.110;-2.241339;0.330733
1.120;-2.260111;0.320645
1.130;-2.279773;0.311548
1.140;-2.300158;0.303985
1.150;-2.321295;0.298140
1.160;-2.343298;0.293869
1.170;-2.366232;0.290869
1.180;-2.390027;0.288870
1.190;-2.414466;0.287735
1.200;-2.439186;0.287415
1.210;-2.463680;0.287808
1.220;-2.487294;0.288664
1.230;-2.509280;0.289620
1.240;-2.528939;0.290365
1.250;-2.545812;0.290820
1.260;-2.559841;0.291208
1.270;-2.571422;0.291960
1.280;-2.581335;0.293525
1.290;-2.590565;0.296201
1.300;-2.600091;0.300107
1.310;-2.610690;0.305278
1.320;-2.622826;0.311780
1.330;-2.636634;0.319759
1.340;-2.651993;0.329394
1.350;-2.668672;0.340823
1.360;-2.686495;0.354058
1.370;-2.705514;0.368914
1.380;-2.726143;0.384973
1.390;-2.749220;0.401586
1.400;-2.775957;0.417974
1.410;-2.807763;0.433385
1.420;-2.845963;0.447255
1.430;-2.891442;0.459306
1.440;-2.944293;0.469550
1.450;-3.003529;0.478225
1.460;-3.066945;0.485691
1.470;-3.131205;0.492331
1.480;-3.192218;0.498441
1.490;-3.245812;0.504150
1.500;-3.288574;0.509418
1.510;-3.318588;0.514113
1.520;-3.335801;0.518132
1.530;-3.341844;0.521484
1.540;-3.339398;0.524305
1.550;-3.331354;0.526812
1.560;-3.320096;0.529219
1.570;-3.307133;0.531638
1.580;-3.293147;0.534016
1.590;-3.278308;0.536126
1.600;-3.262619;0.537622
1.610;-3.246071;0.538132
1.620;-3.228579;0.537394
1.630;-3.209816;0.535358
1.640;-3.189146;0.532247
1.650;-3.165758;0.528540
1.660;-3.138974;0.524886
1.670;-3.108559;0.521960
1.680;-3.074875;0.520279
1.690;-3.038782;0.520030
1.700;-3.001339;0.520973
1.710;-2.963436;0.522449
1.720;-2.925542;0.523547
1.730;-2.887647;0.523338
1.740;-2.849428;0.521096
1.750;-2.810516;0.516410
1.760;-2.770775;0.509189
1.770;-2.730467;0.499606
1.780;-2.690256;0.488045
1.790;-2.651052;0.475041
1.800;-2.613760;0.461225
1.810;-2.579042;0.447248
1.820;-2.547175;0.433726
1.830;-2.518063;0.421177
1.840;-2.491357;0.409952
1.850;-2.466636;0.400159
1.860;-2.443558;0.391622
1.870;-2.421955;0.383922
1.880;-2.401831;0.376530
1.890;-2.383264;0.368980
1.900;-2.366240;0.361005
1.910;-2.350508;0.352593
1.920;-2.335543;0.343946
1.930;-2.320649;0.335383
1.940;-2.305148;0.327231
1.950;-2.288573;0.319712
1.960;-2.270779;0.312847
1.970;-2.251936;0.306390
1.980;-2.232403;0.299850
1.990;-2.212523;0.292633
2.000;-2.192454;0.284273
2.010;-2.172103;0.274644
2.020;-2.151221;0.264034
2.030;-2.129586;0.253049
2.040;-2.107167;0.242399
2.050;-2.084163;0.232682
2.060;-2.060927;0.224266
2.070;-2.037874;0.217319
2.080;-2.015405;0.211918
2.090;-1.993896;0.208129
2.100;-1.973707;0.205982
2.110;-1.955172;0.205350
2.120;-1.938542;0.205842
2.130;-1.923846;0.206869
2.140;-1.910753;0.207870
2.150;-1.898513;0.208600
2.160;-1.886064;0.209269
2.170;-1.872307;0.210456
2.180;-1.856435;0.212847
2.190;-1.838167;0.216930
2.200;-1.817784;0.222785
2.210;-1.795992;0.230039
2.220;-1.773701;0.237996
2.230;-1.751813;0.245875
2.240;-1.731076;0.253046
2.250;-1.711993;0.259144
2.260;-1.694772;0.264064
2.270;-1.679327;0.267868
2.280;-1.665346;0.270692
2.290;-1.652426;0.272696
2.300;-1.640241;0.274079
2.310;-1.628678;0.275094
2.320;-1.617889;0.276048
2.330;-1.608228;0.277231
2.340;-1.600123;0.278817
2.350;-1.593896;0.280803
2.360;-1.589627;0.283029
2.370;-1.587067;0.285274
2.380;-1.585656;0.287395
2.390;-1.584631;0.289416
2.400;-1.583214;0.291544
2.410;-1.580813;0.294091
2.420;-1.577176;0.297326
2.430;-1.572403;0.301345
2.440;-1.566835;0.305981
2.450;-1.560887;0.310819
2.460;-1.554905;0.315293
2.470;-1.549119;0.318890
2.480;-1.543674;0.321354
2.490;-1.538710;0.322824
2.500;-1.534422;0.323827
2.510;-1.531056;0.325129
2.520;-1.528852;0.327501
2.530;-1.527959;0.331483
2.540;-1.528365;0.337214
2.550;-1.529878;0.344404
2.560;-1.532160;0.352452
2.570;-1.534809;0.360684
2.580;-1.537481;0.368579
2.590;-1.540012;0.375888
2.600;-1.542514;0.382607
2.610;-1.545382;0.388887
2.620;-1.549207;0.394937
2.630;-1.554585;0.400970
2.640;-1.561885;0.407216
2.650;-1.571065;0.413943
2.660;-1.581630;0.421468
2.670;-1.592772;0.430102
2.680;-1.603652;0.440027
2.690;-1.613700;0.451190
2.700;-1.622788;0.463285
2.710;-1.631223;0.475857
2.720;-1.639589;0.488454
2.730;-1.648544;0.500733
2.740;-1.658638;0.512474
2.750;-1.670205;0.523538
2.760;-1.683289;0.533820
2.770;-1.697613;0.543205
2.780;-1.712589;0.551564
2.790;-1.727415;0.558759
2.800;-1.741273;0.564673
2.810;-1.753552;0.569222
2.820;-1.764012;0.572312
2.830;-1.772801;0.573745
2.840;-1.780321;0.573136
2.850;-1.787028;0.569939
2.860;-1.793299;0.563610
2.870;-1.799400;0.553846
2.880;-1.805528;0.540776
2.890;-1.811838;0.525017
2.900;-1.818398;0.507566
2.910;-1.825084;0.489567
2.920;-1.831542;0.472035
2.930;-1.837269;0.455646
2.940;-1.841836;0.440658
2.950;-1.845113;0.426988
2.960;-1.847381;0.414372
2.970;-1.849260;0.402534
2.980;-1.851477;0.391312
2.990;-1.854599;0.380713
3.000;-1.858836;0.370904
3.010;-1.864005;0.362143
3.020;-1.869667;0.354687
3.030;-1.875354;0.348700
3.040;-1.880796;0.344216
3.050;-1.886032;0.341144
3.060;-1.891371;0.339311
3.070;-1.897219;0.338541
3.080;-1.903860;0.338696
3.090;-1.911265;0.339688
3.100;-1.919044;0.341420
3.110;-1.926562;0.343714
3.120;-1.933190;0.346270
3.130;-1.938584;0.348711
3.140;-1.942866;0.350691
3.150;-1.946609;0.352045
3.160;-1.950669;0.352873
3.170;-1.955919;0.353495
3.180;-1.963008;0.354310
3.190;-1.972180;0.355620
3.200;-1.983205;0.357518
3.210;-1.995420;0.359878
3.220;-2.007888;0.362421
3.230;-2.019612;0.364838
3.240;-2.029770;0.366925
3.250;-2.037896;0.368698
3.260;-2.043987;0.370412
3.270;-2.048506;0.372448
3.280;-2.052250;0.375125
3.290;-2.056109;0.378506
3.300;-2.060801;0.382325
3.310;-2.066662;0.386051
3.320;-2.073572;0.389094
3.330;-2.081040;0.391048
3.340;-2.088404;0.391880
3.350;-2.095083;0.391988
3.360;-2.100750;0.392093
3.370;-2.105364;0.393000
3.380;-2.109079;0.395316
3.390;-2.112068;0.399222
3.400;-2.114358;0.404434
3.410;-2.115710;0.410349
3.420;-2.115606;0.416320
3.430;-2.113332;0.421875
3.440;-2.108156;0.426794
3.450;-2.099527;0.431049
3.460;-2.087229;0.434707
3.470;-2.071420;0.437889
3.480;-2.052547;0.440796
3.490;-2.031203;0.443730
3.500;-2.007992;0.447069
3.510;-1.983439;0.451185
3.520;-1.957972;0.456362
3.530;-1.931962;0.462731
3.540;-1.905819;0.470214
3.550;-1.880065;0.478511
3.560;-1.855375;0.487151
3.570;-1.832544;0.495602
3.580;-1.812402;0.503403
3.590;-1.795690;0.510253
3.600;-1.782918;0.516050
3.610;-1.774235;0.520866
3.620;-1.769351;0.524871
3.630;-1.767555;0.528224
3.640;-1.767846;0.531001
3.650;-1.769160;0.533176
3.660;-1.770626;0.534662
3.670;-1.771757;0.535359
3.680;-1.772531;0.535195
3.690;-1.773317;0.534133
3.700;-1.774709;0.532169
3.710;-1.777315;0.529317
3.720;-1.781592;0.525608
3.730;-1.787760;0.521095
3.740;-1.795777;0.515857
3.750;-1.805366;0.510011
3.760;-1.816056;0.503701
3.770;-1.827237;0.497102
3.780;-1.838227;0.490416
3.790;-1.848394;0.483833
3.800;-1.857302;0.477458
3.810;-1.864848;0.471240
3.820;-1.871284;0.464967
3.830;-1.877117;0.458348
3.840;-1.882898;0.451133
3.850;-1.889007;0.443206
3.860;-1.895531;0.434624
3.870;-1.902272;0.425613
3.880;-1.908884;0.416539
3.890;-1.915047;0.407854
3.900;-1.920632;0.399996
3.910;-1.925794;0.393260
3.920;-1.930973;0.387685
3.930;-1.936792;0.383053
3.940;-1.943894;0.378985
3.950;-1.952786;0.375090
3.960;-1.963715;0.371076
3.970;-1.976599;0.366786
3.980;-1.991033;0.362181
3.990;-2.006395;0.357311
4.000;-2.022039;0.352282
4.010;-2.037488;0.347253
4.020;-2.052549;0.342424
4.030;-2.067283;0.338012
4.040;-2.081865;0.334208
4.050;-2.096442;0.331142
4.060;-2.111058;0.328871
4.070;-2.125684;0.327376
4.080;-2.140293;0.326575
4.090;-2.154887;0.326331
4.100;-2.169474;0.326459
4.110;-2.184008;0.326755
4.120;-2.198363;0.327044
4.130;-2.212361;0.327242
4.140;-2.225834;0.327402
4.150;-2.238665;0.327702
4.160;-2.250766;0.328392
4.170;-2.261982;0.329699
4.180;-2.271987;0.331754
4.190;-2.280215;0.334541
4.200;-2.285927;0.337900
4.210;-2.288383;0.341559
4.220;-2.287076;0.345194
4.230;-2.281940;0.348543
4.240;-2.273449;0.351526
4.250;-2.262559;0.354335
4.260;-2.250499;0.357384
4.270;-2.238469;0.361141
4.280;-2.227355;0.365907
4.290;-2.217566;0.371664
4.300;-2.209046;0.378067
4.310;-2.201437;0.384574
4.320;-2.194307;0.390633
4.330;-2.187326;0.395876
4.340;-2.180303;0.400230
4.350;-2.173123;0.403924
4.360;-2.165654;0.407381
4.370;-2.157725;0.411075
4.380;-2.149186;0.415407
4.390;-2.140004;0.420640
4.400;-2.130337;0.426878
4.410;-2.120554;0.434048
4.420;-2.111180;0.441896
4.430;-2.102736;0.449994
4.440;-2.095544;0.457784
4.450;-2.089563;0.464679
4.460;-2.084370;0.470205
4.470;-2.079316;0.474155
4.480;-2.073795;0.476677
4.490;-2.067514;0.478235
4.500;-2.060629;0.479463
4.510;-2.053703;0.480983
4.520;-2.047497;0.483258
4.530;-2.042684;0.486512
4.540;-2.039586;0.490715
4.550;-2.038031;0.495638
4.560;-2.037372;0.500978
4.570;-2.036684;0.506513
4.580;-2.035082;0.512202
4.590;-2.032034;0.518173
4.600;-2.027543;0.524595
4.610;-2.022104;0.531531
4.620;-2.016469;0.538862
4.630;-2.011340;0.546336
4.640;-2.007137;0.553678
4.650;-2.003912;0.560704
4.660;-2.001418;0.567348
4.670;-1.999257;0.573596
4.680;-1.997044;0.579395
4.690;-1.994518;0.584587
4.700;-1.991585;0.588920
4.710;-1.988291;0.592093
4.720;-1.984760;0.593831
4.730;-1.981126;0.593952
4.740;-1.977492;0.592436
4.750;-1.973905;0.589482
4.760;-1.970364;0.585536
4.770;-1.966858;0.581242
4.780;-1.963450;0.577320
4.790;-1.960354;0.574398
4.800;-1.957957;0.572853
4.810;-1.956709;0.572724
4.820;-1.956947;0.573720
4.830;-1.958730;0.575327
4.840;-1.961792;0.576967
4.850;-1.965600;0.578177
4.860;-1.969506;0.578736
4.870;-1.972895;0.578704
4.880;-1.975296;0.578337
4.890;-1.976444;0.577947
4.900;-1.976306;0.577767
4.910;-1.975096;0.577877
4.920;-1.973269;0.578204
4.930;-1.971466;0.578579
4.940;-1.970388;0.578833
4.950;-1.970616;0.578888
4.960;-1.972427;0.578806
4.970;-1.975725;0.578760
4.980;-1.980091;0.578950
4.990;-1.984971;0.579491
5.000;-1.989891;0.580368
5.010;-1.994623;0.581457
5.020;-1.999234;0.582605
5.030;-2.003992;0.583685
5.040;-2.009196;0.584603
5.050;-2.015009;0.585260
5.060;-2.021420;0.585500
5.070;-2.028307;0.585107
5.080;-2.035582;0.583858
5.090;-2.043306;0.581625
5.100;-2.051717;0.578478
5.110;-2.061144;0.574723
5.120;-2.071864;0.570833
5.130;-2.083942;0.567268
5.140;-2.097122;0.564261
5.150;-2.110794;0.561695
5.160;-2.124088;0.559156
5.170;-2.136074;0.556117
5.180;-2.146017;0.552153
5.190;-2.153582;0.547097
5.200;-2.158934;0.541090
5.210;-2.162688;0.534526
5.220;-2.165744;0.527906
5.230;-2.169040;0.521662
5.240;-2.173296;0.516016
5.250;-2.178841;0.510967
5.260;-2.185598;0.506394
5.270;-2.193206;0.502232
5.280;-2.201184;0.498600
5.290;-2.209053;0.495837
5.300;-2.216389;0.494421
5.310;-2.222832;0.494816
5.320;-2.228085;0.497297
5.330;-2.231936;0.501814
5.340;-2.234287;0.507942
5.350;-2.235150;0.514952
5.360;-2.234611;0.522012
5.370;-2.232740;0.528455
5.380;-2.229508;0.534034
5.390;-2.224747;0.539047
5.400;-2.218187;0.544264
5.410;-2.209576;0.550648
5.420;-2.198834;0.558965
5.430;-2.186147;0.569463
5.440;-2.171954;0.581758
5.450;-2.156843;0.594964
5.460;-2.141434;0.607993
5.470;-2.126310;0.619895
5.480;-2.112009;0.630093
5.490;-2.099042;0.638476
5.500;-2.087888;0.645376
5.510;-2.078942;0.651493
5.520;-2.072404;0.657832
5.530;-2.068172;0.665592
5.540;-2.065794;0.675951
5.550;-2.064563;0.689734
5.560;-2.063709;0.707055
5.570;-2.062620;0.727110
5.580;-2.060970;0.748283
5.590;-2.058741;0.768540
5.600;-2.056146;0.786005
5.610;-2.053499;0.799482
5.620;-2.051064;0.808759
5.630;-2.048941;0.814569
5.640;-2.047028;0.818264
5.650;-2.045079;0.821301
5.660;-2.042810;0.824771
5.670;-2.040009;0.829096
5.680;-2.036572;0.833983
5.690;-2.032466;0.838619
5.700;-2.027640;0.842007
5.710;-2.021979;0.843307
5.720;-2.015316;0.842096
5.730;-2.007541;0.838479
5.740;-1.998729;0.833056
5.750;-1.989199;0.826769
5.760;-1.979454;0.820669
5.770;-1.970028;0.815652
5.780;-1.961305;0.812245
5.790;-1.953371;0.810492
5.800;-1.945949;0.809977
5.810;-1.938440;0.809994
5.820;-1.930069;0.809792
5.830;-1.920114;0.808808
5.840;-1.908141;0.806809
5.850;-1.894162;0.803931
5.860;-1.878646;0.800622
5.870;-1.862366;0.797528
5.880;-1.846170;0.795286
5.890;-1.830761;0.794281
5.900;-1.816576;0.794465
5.910;-1.803784;0.795348
5.920;-1.792380;0.796186
5.930;-1.782304;0.796267
5.940;-1.773510;0.795147
5.950;-1.765968;0.792741
5.960;-1.759593;0.789290
5.970;-1.754155;0.785246
5.980;-1.749234;0.781135
5.990;-1.744273;0.777406
6.000;-1.738746;0.774303
6.010;-1.732339;0.771794
6.020;-1.725050;0.769578
6.030;-1.717140;0.767175
6.040;-1.708992;0.764060
6.050;-1.700955;0.759820
6.060;-1.693248;0.754273
6.070;-1.685934;0.747528
6.080;-1.678977;0.739948
6.090;-1.672333;0.732036
6.100;-1.666019;0.724260
6.110;-1.660130;0.716882
6.120;-1.654822;0.709827
6.130;-1.650261;0.702685
6.140;-1.646592;0.694829
6.150;-1.643925;0.685636
6.160;-1.642320;0.674704
6.170;-1.641784;0.661989
6.180;-1.642257;0.647820
6.190;-1.643618;0.632822
6.200;-1.645733;0.617785
6.210;-1.648516;0.603510
6.220;-1.651978;0.590648
6.230;-1.656220;0.579545
6.240;-1.661369;0.570135
6.250;-1.667502;0.561961
6.260;-1.674611;0.554362
6.270;-1.682627;0.546748
6.280;-1.691461;0.538861
6.290;-1.701046;0.530866
6.300;-1.711334;0.523251
6.310;-1.722255;0.516575
6.320;-1.733666;0.511216
6.330;-1.745353;0.507225
6.340;-1.757077;0.504356
6.350;-1.768647;0.502221
6.360;-1.779964;0.500480
6.370;-1.791033;0.498972
6.380;-1.801949;0.497737
6.390;-1.812857;0.496951
6.400;-1.823908;0.496805
6.410;-1.835184;0.497394
6.420;-1.846661;0.498631
6.430;-1.858198;0.500222
6.440;-1.869564;0.501700
6.450;-1.880455;0.502540
6.460;-1.890515;0.502314
6.470;-1.899380;0.500839
6.480;-1.906793;0.498242
6.490;-1.912757;0.494921
6.500;-1.917657;0.491443
6.510;-1.922247;0.488397
6.520;-1.927459;0.486254
6.530;-1.934113;0.485233
6.540;-1.942661;0.485200
6.550;-1.953071;0.485672
6.560;-1.964923;0.485950
6.570;-1.977631;0.485326
6.580;-1.990686;0.483285
6.590;-2.003800;0.479614
6.600;-2.016914;0.474399
6.610;-2.030055;0.467939
6.620;-2.043119;0.460632
6.630;-2.055692;0.452902
6.640;-2.067039;0.445170
6.650;-2.076282;0.437847
6.660;-2.082688;0.431300
6.670;-2.085929;0.425759
6.680;-2.086207;0.421222
6.690;-2.084185;0.417450
6.700;-2.080753;0.414071
6.710;-2.076715;0.410746
6.720;-2.072566;0.407328
6.730;-2.068428;0.403922
6.740;-2.064165;0.400831
6.750;-2.059580;0.398409
6.760;-2.054583;0.396895
6.770;-2.049265;0.396327
6.780;-2.043847;0.396559
6.790;-2.038537;0.397354
6.800;-2.033371;0.398479
6.810;-2.028121;0.399772
6.820;-2.022325;0.401155
6.830;-2.015429;0.402592
6.840;-2.006989;0.404029
6.850;-1.996827;0.405355
6.860;-1.985092;0.406414
6.870;-1.972216;0.407088
6.880;-1.958793;0.407380
6.890;-1.945438;0.407445
6.900;-1.932675;0.407545
6.910;-1.920863;0.407939
6.920;-1.910161;0.408752
6.930;-1.900503;0.409896
6.940;-1.891602;0.411067
6.950;-1.883012;0.411854
6.960;-1.874251;0.411909
6.970;-1.864964;0.411088
6.980;-1.855047;0.409520
6.990;-1.844664;0.407555
7.000;-1.834137;0.405646
7.010;-1.823743;0.404194
7.020;-1.813525;0.403416
7.030;-1.803212;0.403280
7.040;-1.792285;0.403521
7.050;-1.780162;0.403766
7.060;-1.766403;0.403686
7.070;-1.750872;0.403104
7.080;-1.733796;0.402018
7.090;-1.715721;0.400544
7.100;-1.697395;0.398847
7.110;-1.679592;0.397118
7.120;-1.662961;0.395561
7.130;-1.647925;0.394385
7.140;-1.634646;0.393768
7.150;-1.623047;0.393812
7.160;-1.612865;0.394488
7.170;-1.603739;0.395601
7.180;-1.595309;0.396783
7.190;-1.587331;0.397555
7.200;-1.579757;0.397454
7.210;-1.572750;0.396188
7.220;-1.566605;0.393764
7.230;-1.561625;0.390522
7.240;-1.557992;0.387038
7.250;-1.555710;0.383910
7.260;-1.554594;0.381526
7.270;-1.554299;0.379917
7.280;-1.554342;0.378779
7.290;-1.554148;0.377624
7.300;-1.553140;0.375997
7.310;-1.550862;0.373663
7.320;-1.547092;0.370698
7.330;-1.541868;0.367445
7.340;-1.535418;0.364382
7.350;-1.528061;0.361956
7.360;-1.520124;0.360484
7.370;-1.511910;0.360123
7.380;-1.503700;0.360887
7.390;-1.495730;0.362636
7.400;-1.488158;0.365055
7.410;-1.481033;0.367647
7.420;-1.474312;0.369812
7.430;-1.467918;0.371008
7.440;-1.461816;0.370946
7.450;-1.456082;0.369719
7.460;-1.450918;0.367783
7.470;-1.446608;0.365792
7.480;-1.443434;0.364342
7.490;-1.441611;0.363764
7.500;-1.441278;0.364071
7.510;-1.442497;0.365079
7.520;-1.445265;0.366596
7.530;-1.449496;0.368567
7.540;-1.455019;0.371061
7.550;-1.461609;0.374131
7.560;-1.469039;0.377651
7.570;-1.477151;0.381250
7.580;-1.485887;0.384395
7.590;-1.495280;0.386580
7.600;-1.505397;0.387538
7.610;-1.516287;0.387369
7.620;-1.527953;0.386509
7.630;-1.540400;0.385530
7.640;-1.553705;0.384855
7.650;-1.568092;0.384545
7.660;-1.583935;0.384285
7.670;-1.601626;0.383582
7.680;-1.621320;0.382067
7.690;-1.642654;0.379737
7.700;-1.664588;0.377018
7.710;-1.685527;0.374640
7.720;-1.703732;0.373375
7.730;-1.717890;0.373742
7.740;-1.727607;0.375792
7.750;-1.733562;0.379093
7.760;-1.737277;0.382921
7.770;-1.740591;0.386592
7.780;-1.745071;0.389738
7.790;-1.751580;0.392419
7.800;-1.760133;0.395015
7.810;-1.770059;0.397982
7.820;-1.780357;0.401598
7.830;-1.790116;0.405817
7.840;-1.798811;0.410268
7.850;-1.806403;0.414403
7.860;-1.813213;0.417709
7.870;-1.819684;0.419912
7.880;-1.826148;0.421084
7.890;-1.832698;0.421613
7.900;-1.839178;0.422058
7.910;-1.845259;0.422952
7.920;-1.850551;0.424618
7.930;-1.854714;0.427052
7.940;-1.857539;0.429912
7.950;-1.858981;0.432636
7.960;-1.859141;0.434651
7.970;-1.858230;0.435622
7.980;-1.856498;0.435621
