Time[s];COPx[cm];COPy[cm]
0.010;-1.041986;0.870097
0.020;-1.045509;0.873708
0.030;-1.047883;0.876405
0.040;-1.048435;0.877659
0.050;-1.047213;0.877488
0.060;-1.044935;0.876329
0.070;-1.042686;0.874725
0.080;-1.041504;0.873019
0.090;-1.042065;0.871194
0.100;-1.044571;0.868906
0.110;-1.048803;0.865673
0.120;-1.054271;0.861114
0.130;-1.060362;0.855127
0.140;-1.066488;0.847950
0.150;-1.072211;0.840101
0.160;-1.077339;0.832224
0.170;-1.081929;0.824940
0.180;-1.086195;0.818735
0.190;-1.090355;0.813896
0.200;-1.094507;0.810465
0.210;-1.098587;0.808178
0.220;-1.102410;0.806449
0.230;-1.105776;0.804421
0.240;-1.108588;0.801130
0.250;-1.110958;0.795741
0.260;-1.113228;0.787796
0.270;-1.115884;0.777390
0.280;-1.119332;0.765209
0.290;-1.123624;0.752370
0.300;-1.128242;0.740129
0.310;-1.132060;0.729570
0.320;-1.133563;0.721387
0.330;-1.131266;0.715816
0.340;-1.124174;0.712684
0.350;-1.112109;0.711524
0.360;-1.095736;0.711682
0.370;-1.076291;0.712411
0.380;-1.055118;0.712920
0.390;-1.033244;0.712447
0.400;-1.011168;0.710380
0.410;-0.988924;0.706403
0.420;-0.966347;0.700625
0.430;-0.943386;0.693633
0.440;-0.920296;0.686418
0.450;-0.897631;0.680188
0.460;-0.876016;0.676079
0.470;-0.855839;0.674862
0.480;-0.837026;0.676749
0.490;-0.819026;0.681392
0.500;-0.801024;0.688048
0.510;-0.782258;0.695835
0.520;-0.762296;0.704004
0.530;-0.741179;0.712120
0.540;-0.719424;0.720123
0.550;-0.697947;0.728238
0.560;-0.677924;0.736767
0.570;-0.660572;0.745878
0.580;-0.646887;0.755472
0.590;-0.637377;0.765188
0.600;-0.631921;0.774509
0.610;-0.629789;0.782939
0.620;-0.629876;0.790164
0.630;-0.631047;0.796159
0.640;-0.632464;0.801190
0.650;-0.633755;0.805727
0.660;-0.634936;0.810306
0.670;-0.636172;0.815368
0.680;-0.637492;0.821137
0.690;-0.638629;0.827602
0.700;-0.639026;0.834581
0.710;-0.637996;0.841818
0.720;-0.634957;0.849049
0.730;-0.629654;0.856022
0.740;-0.622326;0.862495
0.750;-0.613764;0.868240
0.760;-0.605233;0.873063
0.770;-0.598249;0.876827
0.780;-0.594221;0.879487
0.790;-0.594072;0.881125
0.800;-0.597936;0.881942
0.810;-0.605074;0.882211
0.820;-0.614054;0.882169
0.830;-0.623137;0.881906
0.840;-0.630729;0.881323
0.850;-0.635761;0.880192
0.860;-0.637909;0.878299
0.870;-0.637620;0.875608
0.880;-0.635952;0.872348
0.890;-0.634285;0.868990
0.900;-0.633966;0.866092
0.910;-0.635971;0.864112
0.920;-0.640682;0.863247
0.930;-0.647834;0.863362
0.940;-0.656686;0.864014
0.950;-0.666325;0.864572
0.960;-0.676023;0.864395
0.970;-0.685451;0.863010
0.980;-0.694693;0.860220
0.990;-0.704059;0.856126
1.000;-0.713832;0.851072
1.010;-0.724085;0.845563
1.020;-0.734637;0.840146
1.030;-0.745165;0.835292
1.040;-0.755395;0.831283
1.050;-0.765294;0.828139
1.060;-0.775169;0.825592
1.070;-0.785639;0.823152
1.080;-0.797454;0.820260
1.090;-0.811241;0.816487
1.100;-0.827271;0.811686
1.110;-0.845335;0.806013
1.120;-0.864791;0.799787
1.130;-0.884741;0.793287
1.140;-0.904279;0.786595
1.150;-0.922712;0.779568
1.160;-0.939704;0.771928
1.170;-0.955278;0.763417
1.180;-0.969682;0.753948
1.190;-0.983187;0.743718
1.200;-0.995905;0.733215
1.210;-1.007687;0.723141
1.220;-1.018169;0.714256
1.230;-1.026928;0.707184
1.240;-1.033699;0.702215
1.250;-1.038563;0.699176
1.260;-1.042027;0.697441
1.270;-1.044923;0.696118
1.280;-1.048165;0.694338
1.290;-1.052411;0.691552
1.300;-1.057801;0.687709
1.310;-1.063857;0.683236
1.320;-1.069581;0.678856
1.330;-1.073711;0.675322
1.340;-1.075047;0.673165
1.350;-1.072779;0.672546
1.360;-1.066720;0.673260
1.370;-1.057389;0.674878
1.380;-1.045896;0.676956
1.390;-1.033656;0.679194
1.400;-1.022007;0.681476
1.410;-1.011838;0.683842
1.420;-1.003372;0.686436
1.430;-0.996150;0.689492
1.440;-0.989226;0.693289
1.450;-0.981476;0.698066
1.460;-0.971903;0.703916
1.470;-0.959844;0.710753
1.480;-0.945024;0.718386
1.490;-0.927488;0.726649
1.500;-0.907433;0.735526
1.510;-0.885036;0.745217
1.520;-0.860355;0.756114
1.530;-0.833351;0.768685
1.540;-0.804038;0.783271
1.550;-0.772686;0.799861
1.560;-0.739955;0.817934
1.570;-0.706886;0.836497
1.580;-0.674727;0.854319
1.590;-0.644679;0.870292
1.600;-0.617652;0.883724
1.610;-0.594098;0.894432
1.620;-0.573964;0.902598
1.630;-0.556770;0.908506
1.640;-0.541817;0.912334
1.650;-0.528474;0.914103
1.660;-0.516427;0.913765
1.670;-0.505831;0.911348
1.680;-0.497280;0.907028
1.690;-0.491625;0.901091
1.700;-0.489702;0.893831
1.710;-0.492062;0.885442
1.720;-0.498822;0.875990
1.730;-0.509631;0.865475
1.740;-0.523761;0.853936
1.750;-0.540245;0.841508
1.760;-0.558042;0.828403
1.770;-0.576204;0.814819
1.780;-0.594025;0.800877
1.790;-0.611126;0.786633
1.800;-0.627451;0.772119
1.810;-0.643191;0.757376
1.820;-0.658681;0.742426
1.830;-0.674320;0.727226
1.840;-0.690547;0.711665
1.850;-0.707844;0.695604
1.860;-0.726735;0.678946
1.870;-0.747735;0.661689
1.880;-0.771238;0.643916
1.890;-0.797348;0.625745
1.900;-0.825746;0.607266
1.910;-0.855622;0.588556
1.920;-0.885705;0.569760
1.930;-0.914387;0.551190
1.940;-0.939942;0.533353
1.950;-0.960815;0.516847
1.960;-0.975952;0.502185
1.970;-0.985068;0.489637
1.980;-0.988791;0.479174
1.990;-0.988606;0.470532
2.000;-0.986610;0.463368
2.010;-0.985111;0.457427
2.020;-0.986136;0.452657
2.030;-0.990977;0.449190
2.040;-0.999881;0.447222
2.050;-1.011989;0.446856
2.060;-1.025576;0.448024
2.070;-1.038566;0.450483
2.080;-1.049200;0.453882
2.090;-1.056645;0.457876
2.100;-1.061305;0.462243
2.110;-1.064725;0.466980
2.120;-1.069095;0.472305
2.130;-1.076569;0.478573
2.140;-1.088629;0.486129
2.150;-1.105694;0.495178
2.160;-1.127070;0.505693
2.170;-1.151186;0.517394
2.180;-1.176000;0.529767
2.190;-1.199447;0.542168
2.200;-1.219842;0.553974
2.210;-1.236185;0.564721
2.220;-1.248328;0.574154
2.230;-1.256954;0.582166
2.240;-1.263361;0.588682
2.250;-1.269102;0.593591
2.260;-1.275567;0.596778
2.270;-1.283623;0.598230
2.280;-1.293373;0.598117
2.290;-1.304108;0.596799
2.300;-1.314462;0.594766
2.310;-1.322751;0.592563
2.320;-1.327403;0.590740
2.330;-1.327361;0.589795
2.340;-1.322331;0.590093
2.350;-1.312771;0.591765
2.360;-1.299630;0.594645
2.370;-1.283971;0.598297
2.380;-1.266630;0.602164
2.390;-1.248039;0.605804
2.400;-1.228215;0.609106
2.410;-1.206882;0.612361
2.420;-1.183635;0.616149
2.430;-1.158091;0.621099
2.440;-1.130026;0.627630
2.450;-1.099503;0.635789
2.460;-1.066979;0.645225
2.470;-1.033329;0.655297
2.480;-0.999755;0.665258
2.490;-0.967598;0.674428
2.500;-0.938126;0.682294
2.510;-0.912348;0.688514
2.520;-0.890850;0.692898
2.530;-0.873671;0.695433
2.540;-0.860246;0.696351
2.550;-0.849465;0.696184
2.560;-0.839873;0.695716
2.570;-0.829998;0.695810
2.580;-0.818714;0.697145
2.590;-0.805533;0.699997
2.600;-0.790727;0.704159
2.610;-0.775214;0.709027
2.620;-0.760258;0.713799
2.630;-0.747108;0.717681
2.640;-0.736685;0.720029
2.650;-0.729400;0.720438
2.660;-0.725129;0.718816
2.670;-0.723296;0.715435
2.680;-0.723053;0.710909
2.690;-0.723486;0.706066
2.700;-0.723844;0.701721
2.710;-0.723705;0.698479
2.720;-0.723070;0.696630
2.730;-0.722312;0.696164
2.740;-0.721995;0.696870
2.750;-0.722642;0.698453
2.760;-0.724533;0.700614
2.770;-0.727649;0.703069
2.780;-0.731766;0.705517
2.790;-0.736678;0.707608
2.800;-0.742409;0.708981
2.810;-0.749313;0.709369
2.820;-0.757958;0.708696
2.830;-0.768856;0.707079
2.840;-0.782164;0.704738
2.850;-0.797488;0.701888
2.860;-0.813878;0.698704
2.870;-0.830020;0.695371
2.880;-0.844548;0.692191
2.890;-0.856359;0.689617
2.900;-0.864865;0.688170
2.910;-0.870098;0.688233
2.920;-0.872667;0.689829
2.930;-0.873605;0.692478
2.940;-0.874154;0.695244
2.950;-0.875538;0.696995
2.960;-0.878745;0.696792
2.970;-0.884379;0.694247
2.980;-0.892578;0.689680
2.990;-0.903010;0.683998
3.000;-0.914923;0.678362
3.010;-0.927227;0.673788
3.020;-0.938628;0.670846
3.030;-0.947830;0.669532
3.040;-0.953780;0.669342
3.050;-0.955916;0.669494
3.060;-0.954328;0.669214
3.070;-0.949783;0.667976
3.080;-0.943582;0.665656
3.090;-0.937283;0.662554
3.100;-0.932354;0.659299
3.110;-0.929829;0.656664
3.120;-0.930053;0.655350
3.130;-0.932586;0.655806
3.140;-0.936329;0.658121
3.150;-0.939843;0.662027
3.160;-0.941751;0.666989
3.170;-0.941104;0.672363
3.180;-0.937573;0.677559
3.190;-0.931471;0.682160
3.200;-0.923619;0.685999
3.210;-0.915124;0.689174
3.220;-0.907118;0.692019
3.230;-0.900516;0.695004
3.240;-0.895836;0.698620
3.250;-0.893131;0.703259
3.260;-0.892026;0.709122
3.270;-0.891847;0.716164
3.280;-0.891820;0.724078
3.290;-0.891292;0.732320
3.300;-0.889872;0.740211
3.310;-0.887433;0.747094
3.320;-0.884002;0.752490
3.330;-0.879609;0.756225
3.340;-0.874228;0.758478
3.350;-0.867822;0.759748
3.360;-0.860467;0.760724
3.370;-0.852436;0.762059
3.380;-0.844153;0.764142
3.390;-0.836043;0.766947
3.400;-0.828373;0.770059
3.410;-0.821168;0.772842
3.420;-0.814226;0.774642
3.430;-0.807214;0.774965
3.440;-0.799827;0.773569
3.450;-0.791935;0.770498
3.460;-0.783659;0.766068
3.470;-0.775329;0.760828
3.480;-0.767336;0.755482
3.490;-0.759963;0.750778
3.500;-0.753270;0.747352
3.510;-0.747080;0.745594
3.520;-0.741058;0.745561
3.530;-0.734800;0.746966
3.540;-0.727895;0.749283
3.550;-0.719949;0.751910
3.560;-0.710629;0.754368
3.570;-0.699741;0.756447
3.580;-0.687290;0.758213
3.590;-0.673495;0.759901
3.600;-0.658748;0.761756
3.610;-0.643557;0.763937
3.620;-0.628472;0.766518
3.630;-0.614014;0.769547
3.640;-0.600594;0.773063
3.650;-0.588441;0.777038
3.660;-0.577595;0.781285
3.670;-0.567955;0.785419
3.680;-0.559361;0.788926
3.690;-0.551661;0.791334
3.700;-0.544752;0.792410
3.710;-0.538576;0.792265
3.720;-0.533111;0.791316
3.730;-0.528362;0.790120
3.740;-0.524342;0.789161
3.750;-0.521038;0.788699
3.760;-0.518351;0.788715
3.770;-0.516050;0.788944
3.780;-0.513790;0.788960
3.790;-0.511198;0.788280
3.800;-0.508019;0.786468
3.810;-0.504258;0.783237
3.820;-0.500274;0.778538
3.830;-0.496825;0.772596
3.840;-0.495022;0.765868
3.850;-0.496176;0.758911
3.860;-0.501492;0.752225
3.870;-0.511659;0.746135
3.880;-0.526467;0.740733
3.890;-0.544643;0.735908
3.900;-0.564057;0.731427
3.910;-0.582260;0.727040
3.920;-0.597173;0.722559
3.930;-0.607645;0.717900
3.940;-0.613681;0.713067
3.950;-0.616272;0.708127
3.960;-0.616957;0.703200
3.970;-0.617303;0.698462
3.980;-0.618491;0.694131
3.990;-0.621108;0.690429
4.000;-0.625177;0.687550
4.010;-0.630370;0.685638
4.020;-0.636310;0.684776
4.030;-0.642801;0.684950
4.040;-0.649885;0.685976
4.050;-0.657735;0.687455
4.060;-0.666452;0.688827
4.070;-0.675918;0.689533
4.080;-0.685769;0.689241
4.090;-0.695490;0.688008
4.100;-0.704590;0.686294
4.110;-0.712764;0.684809
4.120;-0.719992;0.684256
4.130;-0.726540;0.685106
4.140;-0.732878;0.687488
4.150;-0.739534;0.691190
4.160;-0.746930;0.695736
4.170;-0.755241;0.700460
4.180;-0.764321;0.704607
4.190;-0.773783;0.707504
4.200;-0.783187;0.708740
4.210;-0.792243;0.708281
4.220;-0.800909;0.706414
4.230;-0.809319;0.703568
4.240;-0.817602;0.700131
4.250;-0.825729;0.696361
4.260;-0.833490;0.692401
4.270;-0.840616;0.688367
4.280;-0.846987;0.684440
4.290;-0.852810;0.680906
4.300;-0.858672;0.678112
4.310;-0.865409;0.676332
4.320;-0.873853;0.675602
4.330;-0.884558;0.675609
4.340;-0.897635;0.675729
4.350;-0.912726;0.675230
4.360;-0.929097;0.673541
4.370;-0.945793;0.670455
4.380;-0.961823;0.666159
4.390;-0.976311;0.661119
4.400;-0.988593;0.655894
4.410;-0.998225;0.650975
4.420;-1.004942;0.646683
4.430;-1.008644;0.643151
4.440;-1.009458;0.640357
4.450;-1.007836;0.638176
4.460;-1.004602;0.636409
4.470;-1.000888;0.634821
4.480;-0.997923;0.633197
4.490;-0.996774;0.631462
4.500;-0.998085;0.629792
4.510;-1.001889;0.628625
4.520;-1.007559;0.628523
4.530;-1.013933;0.629924
4.540;-1.019614;0.632922
4.550;-1.023362;0.637183
4.560;-1.024439;0.642064
4.570;-1.022772;0.646861
4.580;-1.018883;0.651078
4.590;-1.013615;0.654560
4.600;-1.007792;0.657487
4.610;-1.001919;0.660241
4.620;-0.996060;0.663217
4.630;-0.989913;0.666671
4.640;-0.983041;0.670649
4.650;-0.975127;0.675029
4.660;-0.966153;0.679653
4.670;-0.956411;0.684441
4.680;-0.946355;0.689425
4.690;-0.936372;0.694679
4.700;-0.926565;0.700215
4.710;-0.916666;0.705919
4.720;-0.906117;0.711594
4.730;-0.894287;0.717037
4.740;-0.880769;0.722095
4.750;-0.865613;0.726675
4.760;-0.849397;0.730733
4.770;-0.833046;0.734274
4.780;-0.817481;0.737382
4.790;-0.803267;0.740207
4.800;-0.790458;0.742879
4.810;-0.778699;0.745407
4.820;-0.767515;0.747632
4.830;-0.756620;0.749303
4.840;-0.746099;0.750237
4.850;-0.736375;0.750425
4.860;-0.727982;0.750022
4.870;-0.721247;0.749232
4.880;-0.716026;0.748210
4.890;-0.711629;0.747027
4.900;-0.706981;0.745726
4.910;-0.700970;0.744380
4.920;-0.692847;0.743131
4.930;-0.682498;0.742191
4.940;-0.670479;0.741810
4.950;-0.657779;0.742179
4.960;-0.645449;0.743304
4.970;-0.634276;0.744892
4.980;-0.624633;0.746355
4.990;-0.616529;0.746952
5.000;-0.609784;0.746016
5.010;-0.604193;0.743168
5.020;-0.599596;0.738422
5.030;-0.595859;0.732168
5.040;-0.592817;0.725051
5.050;-0.590264;0.717811
5.060;-0.587990;0.711095
5.070;-0.585871;0.705308
5.080;-0.583951;0.700528
5.090;-0.582482;0.696545
5.100;-0.581895;0.693019
5.110;-0.582689;0.689681
5.120;-0.585282;0.686488
5.130;-0.589880;0.683652
5.140;-0.596404;0.681542
5.150;-0.604494;0.680498
5.160;-0.613589;0.680667
5.170;-0.623039;0.681930
5.180;-0.632249;0.683965
5.190;-0.640812;0.686415
5.200;-0.648624;0.689054
5.210;-0.655917;0.691879
5.220;-0.663159;0.695064
5.230;-0.670836;0.698815
5.240;-0.679198;0.703195
5.250;-0.688073;0.708007
5.260;-0.696841;0.712793
5.270;-0.704550;0.716936
5.280;-0.710158;0.719812
5.290;-0.712846;0.720955
5.300;-0.712317;0.720223
5.310;-0.708978;0.717909
5.320;-0.703901;0.714732
5.330;-0.698539;0.711631
5.340;-0.694310;0.709412
5.350;-0.692216;0.708424
5.360;-0.692647;0.708417
5.370;-0.695426;0.708660
5.380;-0.700043;0.708214
5.390;-0.705936;0.706242
5.400;-0.712701;0.702220
5.410;-0.720125;0.696044
5.420;-0.728077;0.688008
5.430;-0.736322;0.678703
5.440;-0.744402;0.668859
5.450;-0.751655;0.659199
5.460;-0.757399;0.650313
5.470;-0.761212;0.642569
5.480;-0.763156;0.636021
5.490;-0.763836;0.630365
5.500;-0.764215;0.624992
5.510;-0.765295;0.619173
5.520;-0.767783;0.612310
5.530;-0.771892;0.604141
5.540;-0.777283;0.594834
5.550;-0.783194;0.584925
5.560;-0.788685;0.575152
5.570;-0.792950;0.566226
5.580;-0.795583;0.558635
5.590;-0.796687;0.552523
5.600;-0.796785;0.547679
5.610;-0.796563;0.543640
5.620;-0.796568;0.539843
5.630;-0.796994;0.535788
5.640;-0.797677;0.531160
5.650;-0.798306;0.525859
5.660;-0.798747;0.519959
5.670;-0.799301;0.513634
5.680;-0.800750;0.507094
5.690;-0.804116;0.500559
5.700;-0.810244;0.494241
5.710;-0.819386;0.488340
5.720;-0.830982;0.483031
5.730;-0.843732;0.478427
5.740;-0.855952;0.474560
5.750;-0.866080;0.471383
5.760;-0.873155;0.468810
5.770;-0.877128;0.466755
5.780;-0.878887;0.465152
5.790;-0.879966;0.463962
5.800;-0.882024;0.463174
5.810;-0.886263;0.462816
5.820;-0.893037;0.462958
5.830;-0.901776;0.463682
5.840;-0.911253;0.465021
5.850;-0.920048;0.466886
5.860;-0.927013;0.469048
5.870;-0.931564;0.471197
5.880;-0.933743;0.473078
5.890;-0.934075;0.474625
5.900;-0.933322;0.476022
5.910;-0.932274;0.477644
5.920;-0.931631;0.479895
5.930;-0.931996;0.483019
5.940;-0.933864;0.486959
5.950;-0.937569;0.491316
5.960;-0.943172;0.495420
5.970;-0.950388;0.498518
5.980;-0.958645;0.500020
5.990;-0.967283;0.499720
6.000;-0.975811;0.497895
6.010;-0.984113;0.495211
6.020;-0.992480;0.492499
6.030;-1.001457;0.490495
6.040;-1.011528;0.489632
6.050;-1.022793;0.489961
6.060;-1.034798;0.491176
6.070;-1.046651;0.492722
6.080;-1.057393;0.493964
6.090;-1.066432;0.494357
6.100;-1.073795;0.493596
6.110;-1.080088;0.491697
6.120;-1.086205;0.488974
6.130;-1.092947;0.485888
6.140;-1.100710;0.482840
6.150;-1.109348;0.479988
6.160;-1.118239;0.477220
6.170;-1.126479;0.474267
6.180;-1.133126;0.470865
6.190;-1.137406;0.466880
6.200;-1.138854;0.462345
6.210;-1.137377;0.457451
6.220;-1.133230;0.452530
6.230;-1.126906;0.448005
6.240;-1.118951;0.444319
6.250;-1.109776;0.441814
6.260;-1.099542;0.440599
6.270;-1.088163;0.440483
6.280;-1.075415;0.441021
6.290;-1.061118;0.441687
6.300;-1.045295;0.442079
6.310;-1.028263;0.442045
6.320;-1.010600;0.441678
6.330;-0.993034;0.441198
6.340;-0.976272;0.440782
6.350;-0.960870;0.440436
6.360;-0.947143;0.439973
6.370;-0.935140;0.439115
6.380;-0.924683;0.437644
6.390;-0.915480;0.435528
6.400;-0.907275;0.432934
6.410;-0.899952;0.430145
6.420;-0.893509;0.427408
6.430;-0.887902;0.424797
6.440;-0.882855;0.422116
6.450;-0.877763;0.418915
6.460;-0.871783;0.414608
6.470;-0.864076;0.408702
6.480;-0.854103;0.401043
6.490;-0.841846;0.391992
6.500;-0.827841;0.382431
6.510;-0.813040;0.373560
6.520;-0.798555;0.366526
6.530;-0.785423;0.362043
6.540;-0.774441;0.360135
6.550;-0.766128;0.360140
6.560;-0.760769;0.360949
6.570;-0.758520;0.361384
6.580;-0.759495;0.360557
6.590;-0.763773;0.358080
6.600;-0.771303;0.354061
6.610;-0.781757;0.348960
6.620;-0.794436;0.343385
6.630;-0.808278;0.337934
6.640;-0.821985;0.333093
6.650;-0.834193;0.329166
6.660;-0.843666;0.326252
6.670;-0.849489;0.324284
6.680;-0.851263;0.323135
6.690;-0.849260;0.322734
6.700;-0.844438;0.323118
6.710;-0.838278;0.324393
6.720;-0.832473;0.326634
6.730;-0.828591;0.329777
6.740;-0.827839;0.333542
6.750;-0.830972;0.337440
6.760;-0.838321;0.340890
6.770;-0.849852;0.343420
6.780;-0.865207;0.344894
6.790;-0.883698;0.345616
6.800;-0.904285;0.346246
6.810;-0.925589;0.347536
6.820;-0.946007;0.350024
6.830;-0.963944;0.353855
6.840;-0.978116;0.358787
6.850;-0.987833;0.364357
6.860;-0.993156;0.370087
6.870;-0.994860;0.375632
6.880;-0.994186;0.380851
6.890;-0.992448;0.385800
6.900;-0.990643;0.390674
6.910;-0.989230;0.395698
6.920;-0.988148;0.401001
6.930;-0.987027;0.406555
6.940;-0.985481;0.412180
6.950;-0.983327;0.417592
6.960;-0.980663;0.422448
6.970;-0.977795;0.426366
6.980;-0.975082;0.428970
6.990;-0.972810;0.429951
7.000;-0.971146;0.429119
7.010;-0.970190;0.426427
7.020;-0.970079;0.421964
7.030;-0.971059;0.415937
7.040;-0.973458;0.408648
7.050;-0.977514;0.400460
7.060;-0.983130;0.391753
7.070;-0.989694;0.382908
7.080;-0.996102;0.374321
7.090;-1.001033;0.366440
7.100;-1.003374;0.359773
7.110;-1.002615;0.354835
7.120;-0.999073;0.352008
7.130;-0.993797;0.351368
7.140;-0.988204;0.352574
7.150;-0.983571;0.354892
7.160;-0.980591;0.357385
7.170;-0.979164;0.359205
7.180;-0.978486;0.359860
7.190;-0.977393;0.359363
7.200;-0.974822;0.358171
7.210;-0.970195;0.356941
7.220;-0.963612;0.356197
7.230;-0.955763;0.356058
7.240;-0.947632;0.356160
7.250;-0.940130;0.355794
7.260;-0.933799;0.354189
7.270;-0.928689;0.350817
7.280;-0.924430;0.345605
7.290;-0.920417;0.338993
7.300;-0.916016;0.331821
7.310;-0.910695;0.325079
7.320;-0.904069;0.319565
7.330;-0.895893;0.315592
7.340;-0.886077;0.312886
7.350;-0.874760;0.310776
7.360;-0.862386;0.308560
7.370;-0.849701;0.305880
7.380;-0.837634;0.302885
7.390;-0.827064;0.300157
7.400;-0.818578;0.298456
7.410;-0.812310;0.298425
7.420;-0.807913;0.300374
7.430;-0.804671;0.304207
7.440;-0.801684;0.309496
7.450;-0.798089;0.315637
7.460;-0.793250;0.322028
7.470;-0.786873;0.328202
7.480;-0.779015;0.333940
7.490;-0.769999;0.339323
7.500;-0.760272;0.344711
7.510;-0.750282;0.350638
7.520;-0.740407;0.357645
7.530;-0.730961;0.366102
7.540;-0.722248;0.376090
7.550;-0.714605;0.387380
7.560;-0.708400;0.399509
7.570;-0.703954;0.411922
7.580;-0.701442;0.424121
7.590;-0.700801;0.435809
7.600;-0.701701;0.446980
7.610;-0.703560;0.457944
7.620;-0.705637;0.469238
7.630;-0.707139;0.481465
7.640;-0.707345;0.495120
7.650;-0.705698;0.510493
7.660;-0.701876;0.527689
7.670;-0.695838;0.546702
7.680;-0.687859;0.567460
7.690;-0.678515;0.589757
7.700;-0.668608;0.613085
7.710;-0.659025;0.636517
7.720;-0.650585;0.658759
7.730;-0.643928;0.678443
7.740;-0.639434;0.694544
7.750;-0.637198;0.706700
7.760;-0.637033;0.715297
7.770;-0.638484;0.721281
7.780;-0.640890;0.725819
7.790;-0.643471;0.729960
7.800;-0.645488;0.734391
7.810;-0.646420;0.739331
7.820;-0.646086;0.744547
7.830;-0.644667;0.749481
7.840;-0.642615;0.753490
7.850;-0.640504;0.756081
7.860;-0.638871;0.757091
7.870;-0.638080;0.756735
7.880;-0.638247;0.755533
7.890;-0.639242;0.754138
7.900;-0.640787;0.753096
7.910;-0.642625;0.752594
7.920;-0.644660;0.752299
7.930;-0.647010;0.751383
7.940;-0.649927;0.748784
7.950;-0.653631;0.743626
7.960;-0.658153;0.735643
7.970;-0.663264;0.725360
7.980;-0.668542;0.713941
