Time[s];COPx[cm];COPy[cm]
0.010;1.410349;2.107601
0.020;1.418367;2.100601
0.030;1.424638;2.094627
0.040;1.427840;2.090543
0.050;1.427296;2.088817
0.060;1.423032;2.089473
0.070;1.415631;2.092166
0.080;1.405963;2.096359
0.090;1.394882;2.101518
0.100;1.383011;2.107227
0.110;1.370637;2.113223
0.120;1.357757;2.119373
0.130;1.344221;2.125623
0.140;1.329919;2.131964
0.150;1.314977;2.138423
0.160;1.299925;2.145064
0.170;1.285766;2.151982
0.180;1.273873;2.159248
0.190;1.265687;2.166819
0.200;1.262311;2.174478
0.210;1.264164;2.181871
0.220;1.270837;2.188629
0.230;1.281203;2.194539
0.240;1.293716;2.199659
0.250;1.306791;2.204329
0.260;1.319107;2.209064
0.270;1.329799;2.214369
0.280;1.338507;2.220544
0.290;1.345322;2.227543
0.300;1.350642;2.234945
0.310;1.354946;2.242018
0.320;1.358526;2.247870
0.330;1.361238;2.251597
0.340;1.362386;2.252406
0.350;1.360779;2.249698
0.360;1.354947;2.243165
0.370;1.343477;2.232905
0.380;1.325395;2.219528
0.390;1.300505;2.204148
0.400;1.269555;2.188200
0.410;1.234122;2.173071
0.420;1.196234;2.159678
0.430;1.157849;2.148173
0.440;1.120392;2.137922
0.450;1.084534;2.127780
0.460;1.050286;2.116487
0.470;1.017332;2.103024
0.480;0.985416;2.086820
0.490;0.954607;2.067807
0.500;0.925316;2.046402
0.510;0.898128;2.023433
0.520;0.873549;2.000025
0.530;0.851820;1.977433
0.540;0.832860;1.956835
0.550;0.816322;1.939127
0.560;0.801705;1.924798
0.570;0.788450;1.913921
0.580;0.776045;1.906264
0.590;0.764138;1.901434
0.600;0.752631;1.899002
0.610;0.741701;1.898544
0.620;0.731704;1.899638
0.630;0.722991;1.901872
0.640;0.715751;1.904890
0.650;0.709956;1.908478
0.660;0.705453;1.912614
0.670;0.702116;1.917459
0.680;0.699971;1.923273
0.690;0.699228;1.930298
0.700;0.700231;1.938642
0.710;0.703396;1.948208
0.720;0.709163;1.958678
0.730;0.717963;1.969537
0.740;0.730135;1.980157
0.750;0.745808;1.989875
0.760;0.764797;1.998098
0.770;0.786593;2.004383
0.780;0.810479;2.008513
0.790;0.835750;2.010524
0.800;0.861957;2.010676
0.810;0.889081;2.009350
0.820;0.917537;2.006927
0.830;0.947989;2.003629
0.840;0.981025;1.999392
0.850;1.016800;1.993806
0.860;1.054734;1.986191
0.870;1.093326;1.975815
0.880;1.130115;1.962183
0.890;1.161828;1.945245
0.900;1.184729;1.925439
0.910;1.195124;1.903557
0.920;1.189938;1.880550
0.930;1.167222;1.857370
0.940;1.126477;1.834922
0.950;1.068702;1.814082
0.960;0.996154;1.795683
0.970;0.911857;1.780388
0.980;0.819008;1.768468
0.990;0.720466;1.759600
1.000;0.618477;1.752828
1.010;0.514666;1.746770
1.020;0.410254;1.740018
1.030;0.306347;1.731547
1.040;0.204181;1.720989
1.050;0.105263;1.708685
1.060;0.011375;1.695537
1.070;-0.075535;1.682750
1.080;-0.153556;1.671548
1.090;-0.221073;1.662924
1.100;-0.277027;1.657474
1.110;-0.321109;1.655311
1.120;-0.353811;1.656064
1.130;-0.376316;1.658946
1.140;-0.390213;1.662867
1.150;-0.397115;1.666615
1.160;-0.398253;1.669037
1.170;-0.394152;1.669227
1.180;-0.384464;1.666642
1.190;-0.368040;1.661150
1.200;-0.343294;1.653010
1.210;-0.308773;1.642800
1.220;-0.263797;1.631265
1.230;-0.208948;1.619144
1.240;-0.146241;1.607002
1.250;-0.078894;1.595167
1.260;-0.010787;1.583761
1.270;0.054249;1.572783
1.280;0.113098;1.562163
1.290;0.163835;1.551778
1.300;0.205913;1.541434
1.310;0.240044;1.530857
1.320;0.267840;1.519721
1.330;0.291310;1.507757
1.340;0.312389;1.494913
1.350;0.332642;1.481513
1.360;0.353204;1.468283
1.370;0.374915;1.456185
1.380;0.398492;1.446102
1.390;0.424630;1.438537
1.400;0.453967;1.433487
1.410;0.486974;1.430536
1.420;0.523883;1.429103
1.430;0.564721;1.428706
1.440;0.609425;1.429156
1.450;0.657966;1.430611
1.460;0.710394;1.433504
1.470;0.766761;1.438358
1.480;0.826962;1.445598
1.490;0.890575;1.455413
1.500;0.956816;1.467744
1.510;1.024651;1.482357
1.520;1.093043;1.498920
1.530;1.161194;1.517005
1.540;1.228674;1.536025
1.550;1.295374;1.555196
1.560;1.361316;1.573599
1.570;1.426450;1.590377
1.580;1.490543;1.604958
1.590;1.553187;1.617225
1.600;1.613904;1.627539
1.610;1.672254;1.636647
1.620;1.727902;1.645468
1.630;1.780609;1.654817
1.640;1.830167;1.665158
1.650;1.876311;1.676478
1.660;1.918648;1.688362
1.670;1.956631;1.700204
1.680;1.989585;1.711440
1.690;2.016784;1.721675
1.700;2.037565;1.730669
1.710;2.051450;1.738263
1.720;2.058224;1.744335
1.730;2.057956;1.748841
1.740;2.050964;1.751909
1.750;2.037770;1.753910
1.760;2.019063;1.755476
1.770;1.995685;1.757447
1.780;1.968623;1.760765
1.790;1.939045;1.766323
1.800;1.908348;1.774787
1.810;1.878176;1.786428
1.820;1.850325;1.800998
1.830;1.826513;1.817738
1.840;1.808044;1.835525
1.850;1.795501;1.853149
1.860;1.788603;1.869633
1.870;1.786314;1.884477
1.880;1.787191;1.897747
1.890;1.789822;1.909973
1.900;1.793216;1.921920
1.910;1.797018;1.934285
1.920;1.801514;1.947469
1.930;1.807443;1.961462
1.940;1.815697;1.975836
1.950;1.826996;1.989827
1.960;1.841646;2.002500
1.970;1.859470;2.012990
1.980;1.879897;2.020785
1.990;1.902149;2.025883
2.000;1.925405;2.028771
2.010;1.948909;2.030181
2.020;1.971993;2.030748
2.030;1.994043;2.030696
2.040;2.014417;2.029714
2.050;2.032348;2.027097
2.060;2.046884;2.022101
2.070;2.056947;2.014330
2.080;2.061510;2.003988
2.090;2.059842;1.991885
2.100;2.051727;1.979232
2.110;2.037571;1.967291
2.120;2.018366;1.957007
2.130;1.995524;1.948769
2.140;1.970659;1.942371
2.150;1.945362;1.937153
2.160;1.921027;1.932213
2.170;1.898684;1.926591
2.180;1.878833;1.919377
2.190;1.861310;1.909765
2.200;1.845251;1.897106
2.210;1.829217;1.881007
2.220;1.811488;1.861446
2.230;1.790442;1.838875
2.240;1.764922;1.814248
2.250;1.734515;1.788949
2.260;1.699675;1.764638
2.270;1.661693;1.743013
2.280;1.622482;1.725555
2.290;1.584244;1.713312
2.300;1.549094;1.706785
2.310;1.518736;1.705920
2.320;1.494224;1.710168
2.330;1.475851;1.718590
2.340;1.463151;1.729996
2.350;1.455057;1.743111
2.360;1.450179;1.756769
2.370;1.447164;1.770093
2.380;1.445020;1.782624
2.390;1.443305;1.794357
2.400;1.442120;1.805659
2.410;1.441937;1.817041
2.420;1.443323;1.828893
2.430;1.446651;1.841287
2.440;1.451882;1.853978
2.450;1.458494;1.866595
2.460;1.465588;1.878892
2.470;1.472142;1.890919
2.480;1.477334;1.903047
2.490;1.480819;1.915824
2.500;1.482861;1.929744
2.510;1.484273;1.945023
2.520;1.486138;1.961469
2.530;1.489401;1.978521
2.540;1.494486;1.995425
2.550;1.501107;2.011479
2.560;1.508367;2.026244
2.570;1.515091;2.039651
2.580;1.520224;2.052012
2.590;1.523131;2.063925
2.600;1.523701;2.076104
2.610;1.522303;2.089148
2.620;1.519682;2.103338
2.630;1.516859;2.118533
2.640;1.515036;2.134252
2.650;1.515460;2.149941
2.660;1.519231;2.165309
2.670;1.527107;2.180589
2.680;1.539385;2.196556
2.690;1.555932;2.214314
2.700;1.576372;2.234933
2.710;1.600348;2.259122
2.720;1.627769;2.287023
2.730;1.658937;2.318168
2.740;1.694493;2.351570
2.750;1.735169;2.385915
2.760;1.781385;2.419822
2.770;1.832858;2.452116
2.780;1.888376;2.482035
2.790;1.945895;2.509327
2.800;2.002936;2.534192
2.810;2.057164;2.557098
2.820;2.106902;2.578552
2.830;2.151384;2.598932
2.840;2.190701;2.618442
2.850;2.225512;2.637169
2.860;2.256680;2.655169
2.870;2.284959;2.672491
2.880;2.310735;2.689136
2.890;2.333862;2.704961
2.900;2.353611;2.719614
2.910;2.368804;2.732508
2.920;2.378087;2.742860
2.930;2.380289;2.749850
2.940;2.374732;2.752870
2.950;2.361403;2.751784
2.960;2.340954;2.747055
2.970;2.314544;2.739659
2.980;2.283609;2.730792
2.990;2.249646;2.721530
3.000;2.214052;2.712590
3.010;2.178016;2.704291
3.020;2.142455;2.696701
3.030;2.108014;2.689854
3.040;2.075119;2.683934
3.050;2.044058;2.679305
3.060;2.015041;2.676396
3.070;1.988215;2.675481
3.080;1.963644;2.676509
3.090;1.941298;2.679067
3.100;1.921052;2.682542
3.110;1.902700;2.686402
3.120;1.885976;2.690490
3.130;1.870579;2.695165
3.140;1.856200;2.701197
3.150;1.842549;2.709418
3.160;1.829362;2.720321
3.170;1.816386;2.733769
3.180;1.803367;2.748966
3.190;1.790033;2.764666
3.200;1.776074;2.779535
3.210;1.761110;2.792473
3.220;1.744682;2.802791
3.230;1.726310;2.810190
3.240;1.705626;2.814668
3.250;1.682506;2.816410
3.260;1.657113;2.815731
3.270;1.629800;2.813011
3.280;1.600894;2.808602
3.290;1.570466;2.802720
3.300;1.538213;2.795386
3.310;1.503502;2.786467
3.320;1.465611;2.775829
3.330;1.424051;2.763538
3.340;1.378894;2.750006
3.350;1.330961;2.736016
3.360;1.281809;2.722609
3.370;1.233498;2.710885
3.380;1.188200;2.701771
3.390;1.147778;2.695848
3.400;1.113490;2.693292
3.410;1.085887;2.693935
3.420;1.064900;2.697413
3.430;1.050027;2.703305
3.440;1.040541;2.711227
3.450;1.035642;2.720857
3.460;1.034507;2.731912
3.470;1.036259;2.744108
3.480;1.039897;2.757110
3.490;1.044284;2.770496
3.500;1.048215;2.783798
3.510;1.050603;2.796588
3.520;1.050695;2.808581
3.530;1.048247;2.819656
3.540;1.043545;2.829777
3.550;1.037243;2.838879
3.560;1.030082;2.846841
3.570;1.022645;2.853562
3.580;1.015269;2.859071
3.590;1.008097;2.863557
3.600;1.001187;2.867329
3.610;0.994536;2.870726
3.620;0.988004;2.874042
3.630;0.981203;2.877485
3.640;0.973468;2.881124
3.650;0.963949;2.884828
3.660;0.951794;2.888226
3.670;0.936354;2.890758
3.680;0.917352;2.891836
3.690;0.894980;2.891082
3.700;0.869887;2.888529
3.710;0.843032;2.884687
3.720;0.815433;2.880420
3.730;0.787870;2.876648
3.740;0.760687;2.874016
3.750;0.733744;2.872683
3.760;0.706551;2.872357
3.770;0.678491;2.872544
3.780;0.649023;2.872861
3.790;0.617786;2.873250
3.800;0.584605;2.873987
3.810;0.549456;2.875484
3.820;0.512429;2.878005
3.830;0.473729;2.881425
3.840;0.433666;2.885158
3.850;0.392660;2.888292
3.860;0.351250;2.889843
3.870;0.310140;2.889006
3.880;0.270233;2.885264
3.890;0.232632;2.878358
3.900;0.198515;2.868221
3.910;0.168919;2.854958
3.920;0.144464;2.838908
3.930;0.125170;2.820667
3.940;0.110424;2.801017
3.950;0.099151;2.780737
3.960;0.090119;2.760388
3.970;0.082309;2.740197
3.980;0.075236;2.720095
3.990;0.069077;2.699903
4.000;0.064576;2.679543
4.010;0.062741;2.659150
4.020;0.064459;2.639035
4.030;0.070198;2.619510
4.040;0.079885;2.600637
4.050;0.093010;2.582029
4.060;0.108870;2.562798
4.070;0.126862;2.541715
4.080;0.146650;2.517532
4.090;0.168168;2.489376
4.100;0.191435;2.457073
4.110;0.216286;2.421342
4.120;0.242138;2.383756
4.130;0.267884;2.346461
4.140;0.292007;2.311717
4.150;0.312857;2.281426
4.160;0.329007;2.256783
4.170;0.339559;2.238168
4.180;0.344286;2.225225
4.190;0.343580;2.217084
4.200;0.338232;2.212619
4.210;0.329143;2.210714
4.220;0.317093;2.210495
4.230;0.302604;2.211493
4.240;0.285924;2.213682
4.250;0.267100;2.217362
4.260;0.246087;2.222891
4.270;0.222852;2.230356
4.280;0.197394;2.239305
4.290;0.169691;2.248706
4.300;0.139629;2.257190
4.310;0.107031;2.263520
4.320;0.071810;2.267055
4.330;0.034235;2.267969
4.340;-0.004823;2.267146
4.350;-0.043805;2.265833
4.360;-0.080612;2.265229
4.370;-0.112956;2.266162
4.380;-0.138808;2.268900
4.390;-0.156758;2.273099
4.400;-0.166201;2.277858
4.410;-0.167317;2.281874
4.420;-0.160919;2.283725
4.430;-0.148253;2.282200
4.440;-0.130812;2.276615
4.450;-0.110189;2.266997
4.460;-0.087929;2.254056
4.470;-0.065394;2.238943
4.480;-0.043638;2.222909
4.490;-0.023365;2.206992
4.500;-0.005000;2.191863
4.510;0.011158;2.177857
4.520;0.024782;2.165134
4.530;0.035464;2.153879
4.540;0.042797;2.144438
4.550;0.046543;2.137309
4.560;0.046795;2.132975
4.570;0.044038;2.131677
4.580;0.039033;2.133214
4.590;0.032588;2.136900
4.600;0.025337;2.141680
4.610;0.017681;2.146369
4.620;0.009928;2.149922
4.630;0.002554;2.151643
4.640;-0.003556;2.151283
4.650;-0.007026;2.149001
4.660;-0.006117;2.145241
4.670;0.000964;2.140576
4.680;0.015703;2.135582
4.690;0.039004;2.130770
4.700;0.071067;2.126567
4.710;0.111409;2.123335
4.720;0.158948;2.121392
4.730;0.212108;2.121038
4.740;0.268942;2.122556
4.750;0.327322;2.126155
4.760;0.385184;2.131870
4.770;0.440778;2.139442
4.780;0.492836;2.148258
4.790;0.540623;2.157374
4.800;0.583880;2.165652
4.810;0.622719;2.171983
4.820;0.657511;2.175531
4.830;0.688779;2.175885
4.840;0.717064;2.173086
4.850;0.742762;2.167553
4.860;0.765986;2.159961
4.870;0.786525;2.151114
4.880;0.803968;2.141808
4.890;0.817995;2.132680
4.900;0.828725;2.124120
4.910;0.836963;2.116270
4.920;0.844210;2.109116
4.930;0.852384;2.102611
4.940;0.863327;2.096724
4.950;0.878310;2.091420
4.960;0.897700;2.086584
4.970;0.920928;2.081960
4.980;0.946706;2.077145
4.990;0.973384;2.071618
5.000;0.999306;2.064787
5.010;1.023088;2.056073
5.020;1.043779;2.045030
5.030;1.060879;2.031501
5.040;1.074251;2.015739
5.050;1.083943;1.998417
5.060;1.090014;1.980480
5.070;1.092415;1.962855
5.080;1.091007;1.946139
5.090;1.085703;1.930399
5.100;1.076657;1.915182
5.110;1.064397;1.899754
5.120;1.049794;1.883431
5.130;1.033897;1.865839
5.140;1.017687;1.846939
5.150;1.001859;1.826852
5.160;0.986695;1.805601
5.170;0.972063;1.782962
5.180;0.957532;1.758502
5.190;0.942572;1.731759
5.200;0.926793;1.702460
5.210;0.910120;1.670687
5.220;0.892858;1.636948
5.230;0.875586;1.602137
5.240;0.858943;1.567409
5.250;0.843364;1.533973
5.260;0.828911;1.502873
5.270;0.815251;1.474781
5.280;0.801796;1.449879
5.290;0.787933;1.427827
5.300;0.773258;1.407889
5.310;0.757721;1.389194
5.320;0.741632;1.371078
5.330;0.725574;1.353350
5.340;0.710269;1.336365
5.350;0.696431;1.320882
5.360;0.684628;1.307772
5.370;0.675155;1.297729
5.380;0.667972;1.291075
5.390;0.662764;1.287683
5.400;0.659124;1.287011
5.410;0.656809;1.288217
5.420;0.655936;1.290353
5.430;0.657055;1.292611
5.440;0.661067;1.294557
5.450;0.669035;1.296271
5.460;0.681961;1.298319
5.470;0.700579;1.301544
5.480;0.725201;1.306756
5.490;0.755611;1.314457
5.500;0.791019;1.324698
5.510;0.830092;1.337114
5.520;0.871078;1.351092
5.530;0.912031;1.365989
5.540;0.951073;1.381265
5.550;0.986648;1.396499
5.560;1.017730;1.411297
5.570;1.043939;1.425213
5.580;1.065538;1.437739
5.590;1.083307;1.448401
5.600;1.098312;1.456916
5.610;1.111673;1.463316
5.620;1.124384;1.467967
5.630;1.137240;1.471464
5.640;1.150821;1.474445
5.650;1.165503;1.477434
5.660;1.181437;1.480761
5.670;1.198522;1.484563
5.680;1.216366;1.488835
5.690;1.234301;1.493491
5.700;1.251433;1.498434
5.710;1.266752;1.503621
5.720;1.279300;1.509075
5.730;1.288366;1.514827
5.740;1.293671;1.520798
5.750;1.295459;1.526721
5.760;1.294437;1.532205
5.770;1.291557;1.536924
5.780;1.287742;1.540822
5.790;1.283665;1.544215
5.800;1.279687;1.547725
5.810;1.275947;1.552083
5.820;1.272518;1.557872
5.830;1.269536;1.565332
5.840;1.267250;1.574294
5.850;1.266008;1.584260
5.860;1.266180;1.594580
5.870;1.268090;1.604601
5.880;1.271937;1.613742
5.890;1.277753;1.621503
5.900;1.285407;1.627472
5.910;1.294659;1.631372
5.920;1.305246;1.633107
5.930;1.316965;1.632777
5.940;1.329749;1.630584
5.950;1.343749;1.626654
5.960;1.359406;1.620864
5.970;1.377465;1.612792
5.980;1.398873;1.601846
5.990;1.424582;1.587510
6.000;1.455314;1.569610
6.010;1.491367;1.548484
6.020;1.532495;1.525033
6.030;1.577859;1.500590
6.040;1.626061;1.476628
6.050;1.675274;1.454370
6.060;1.723485;1.434436
6.070;1.768829;1.416663
6.080;1.809906;1.400199
6.090;1.845973;1.383803
6.100;1.876966;1.366229
6.110;1.903348;1.346548
6.120;1.925869;1.324301
6.130;1.945319;1.299512
6.140;1.962313;1.272599
6.150;1.977170;1.244268
6.160;1.989884;1.215441
6.170;2.000188;1.187229
6.180;2.007687;1.160899
6.190;2.012001;1.137768
6.200;2.012883;1.118994
6.210;2.010225;1.105291
6.220;2.003971;1.096691
6.230;1.993942;1.092448
6.240;1.979725;1.091170
6.250;1.960693;1.091173
6.260;1.936192;1.090931
6.270;1.905805;1.089466
6.280;1.869578;1.086551
6.290;1.828137;1.082678
6.300;1.782657;1.078813
6.310;1.734705;1.076049
6.320;1.685998;1.075289
6.330;1.638142;1.077083
6.340;1.592449;1.081645
6.350;1.549838;1.089014
6.360;1.510809;1.099230
6.370;1.475465;1.112427
6.380;1.443580;1.128807
6.390;1.414722;1.148526
6.400;1.388430;1.171593
6.410;1.364397;1.197853
6.420;1.342584;1.227079
6.430;1.323238;1.259110
6.440;1.306808;1.293926
6.450;1.293811;1.331610
6.460;1.284671;1.372175
6.470;1.279580;1.415356
6.480;1.278391;1.460445
6.490;1.280577;1.506279
6.500;1.285275;1.551374
6.510;1.291420;1.594180
6.520;1.297914;1.633366
6.530;1.303801;1.668094
6.540;1.308425;1.698185
6.550;1.311585;1.724126
6.560;1.313650;1.746896
6.570;1.315568;1.767690
6.580;1.318691;1.787625
6.590;1.324412;1.807568
6.600;1.333695;1.828098
6.610;1.346667;1.849588
6.620;1.362429;1.872290
6.630;1.379183;1.896344
6.640;1.394631;1.921706
6.650;1.406477;1.948081
6.660;1.412867;1.974952
6.670;1.412661;2.001705
6.680;1.405550;2.027808
6.690;1.392024;2.052958
6.700;1.373215;2.077132
6.710;1.350650;2.100523
6.720;1.325956;2.123371
6.730;1.300590;2.145764
6.740;1.275644;2.167481
6.750;1.251740;2.187963
6.760;1.229016;2.206409
6.770;1.207183;2.222011
6.780;1.185644;2.234217
6.790;1.163669;2.242943
6.800;1.140604;2.248597
6.810;1.116071;2.251936
6.820;1.090065;2.253805
6.830;1.062919;2.254900
6.840;1.035145;2.255617
6.850;1.007235;2.256040
6.860;0.979491;2.256033
6.870;0.951909;2.255390
6.880;0.924129;2.253972
6.890;0.895447;2.251772
6.900;0.864893;2.248918
6.910;0.831404;2.245641
6.920;0.794093;2.242243
6.930;0.752540;2.239078
6.940;0.707020;2.236562
6.950;0.658537;2.235180
6.960;0.608672;2.235463
6.970;0.559304;2.237884
6.980;0.512329;2.242702
6.990;0.469493;2.249772
7.000;0.432360;2.258458
7.010;0.402318;2.267725
7.020;0.380544;2.276403
7.030;0.367903;2.283537
7.040;0.364828;2.288632
7.050;0.371236;2.291684
7.060;0.386549;2.292977
7.070;0.409800;2.292775
7.080;0.439827;2.291095
7.090;0.475450;2.287722
7.100;0.515604;2.282430
7.110;0.559366;2.275271
7.120;0.605936;2.266753
7.130;0.654572;2.257798
7.140;0.704563;2.249510
7.150;0.755270;2.242820
7.160;0.806262;2.238145
7.170;0.857421;2.235176
7.180;0.908912;2.232892
7.190;0.960982;2.229835
7.200;1.013671;2.224549
7.210;1.066583;2.216046
7.220;1.118817;2.204096
7.230;1.169049;2.189198
7.240;1.215723;2.172270
7.250;1.257281;2.154240
7.260;1.292389;2.135758
7.270;1.320097;2.117145
7.280;1.339932;2.098544
7.290;1.351907;2.080118
7.300;1.356466;2.062169
7.310;1.354396;2.045088
7.320;1.346719;2.029188
7.330;1.334603;2.014502
7.340;1.319265;2.000659
7.350;1.301865;1.986889
7.360;1.283367;1.972160
7.370;1.264404;1.955415
7.380;1.245175;1.935777
7.390;1.225398;1.912625
7.400;1.204350;1.885506
7.410;1.180994;1.853999
7.420;1.154204;1.817677
7.430;1.123022;1.776239
7.440;1.086876;1.729720
7.450;1.045679;1.678643
7.460;0.999770;1.624062
7.470;0.949731;1.567515
7.480;0.896222;1.510931
7.490;0.839932;1.456498
7.500;0.781676;1.406450
7.510;0.722550;1.362771
7.520;0.664029;1.326855
7.530;0.607906;1.299222
7.540;0.556066;1.279407
7.550;0.510153;1.266105
7.560;0.471243;1.257532
7.570;0.439620;1.251867
7.580;0.414723;1.247590
7.590;0.395293;1.243612
7.600;0.379690;1.239224
7.610;0.366312;1.233994
7.620;0.353970;1.227743
7.630;0.342112;1.220613
7.640;0.330806;1.213157
7.650;0.320501;1.206306
7.660;0.311686;1.201192
7.670;0.304573;1.198859
7.680;0.298932;1.200014
7.690;0.294115;1.204902
7.700;0.289261;1.213325
7.710;0.283607;1.224726
7.720;0.276786;1.238267
7.730;0.268995;1.252878
7.740;0.260934;1.267304
7.750;0.253520;1.280240
7.760;0.247490;1.290559
7.770;0.243062;1.297599
7.780;0.239791;1.301341
7.790;0.236680;1.302357
7.800;0.232500;1.301519
7.810;0.226189;1.299603
7.820;0.217158;1.296991
7.830;0.205426;1.293574
7.840;0.191579;1.288887
7.850;0.176609;1.282403
7.860;0.161706;1.273849
7.870;0.148030;1.263421
7.880;0.136496;1.251810
7.890;0.127596;1.240025
7.900;0.121315;1.229069
7.910;0.117165;1.219574
7.920;0.114337;1.211543
7.930;0.111890;1.204352
7.940;0.108929;1.196996
7.950;0.104712;1.188468
7.960;0.098674;1.178065
7.970;0.090422;1.165488
7.980;0.079716;1.150771
7.990;0.066460;1.134134
8.000;0.050684;1.115882
8.010;0.032528;1.096381
8.020;0.012277;1.076109
8.030;-0.009549;1.055725
8.040;-0.032078;1.036135
8.050;-0.054035;1.018511
8.060;-0.073804;1.004257
8.070;-0.089615;0.994844
8.080;-0.099800;0.991548
8.090;-0.103063;0.995177
8.100;-0.098673;1.005908
8.110;-0.086527;1.023316
8.120;-0.067092;1.046552
8.130;-0.041275;1.074572
8.140;-0.010305;1.106318
8.150;0.024336;1.140794
8.160;0.060985;1.177034
8.170;0.097902;1.214029
8.180;0.133401;1.250669
8.190;0.165993;1.285787
8.200;0.194488;1.318293
8.210;0.218087;1.347351
8.220;0.236454;1.372522
8.230;0.249775;1.393805
8.240;0.258766;1.411607
8.250;0.264569;1.426664
8.260;0.268524;1.439960
8.270;0.271900;1.452654
8.280;0.275683;1.466005
8.290;0.280532;1.481222
8.300;0.286896;1.499270
