Time[s];COPx[cm];COPy[cm]
0.010;-1.650411;1.079407
0.020;-1.613613;1.082441
0.030;-1.576285;1.085790
0.040;-1.538126;1.089443
0.050;-1.499037;1.092974
0.060;-1.459114;1.095794
0.070;-1.418546;1.097533
0.080;-1.377481;1.098324
0.090;-1.335980;1.098812
0.100;-1.294096;1.099876
0.110;-1.252008;1.102214
0.120;-1.210091;1.105993
0.130;-1.168906;1.110737
0.140;-1.129107;1.115500
0.150;-1.091345;1.119228
0.160;-1.056179;1.121151
0.170;-1.024026;1.121038
0.180;-0.995150;1.119230
0.190;-0.969659;1.116490
0.200;-0.947492;1.113726
0.210;-0.928392;1.111733
0.220;-0.911914;1.110999
0.230;-0.897498;1.111645
0.240;-0.884603;1.113484
0.250;-0.872847;1.116152
0.260;-0.862092;1.119246
0.270;-0.852439;1.122392
0.280;-0.844128;1.125261
0.290;-0.837414;1.127608
0.300;-0.832465;1.129381
0.310;-0.829337;1.130874
0.320;-0.828029;1.132760
0.330;-0.828580;1.135941
0.340;-0.831117;1.141243
0.350;-0.835828;1.149097
0.360;-0.842861;1.159345
0.370;-0.852238;1.171256
0.380;-0.863827;1.183754
0.390;-0.877374;1.195747
0.400;-0.892569;1.206440
0.410;-0.909117;1.215508
0.420;-0.926824;1.223107
0.430;-0.945704;1.229742
0.440;-0.966034;1.236031
0.450;-0.988328;1.242475
0.460;-1.013180;1.249292
0.470;-1.041046;1.256389
0.480;-1.072062;1.263468
0.490;-1.106009;1.270208
0.500;-1.142426;1.276453
0.510;-1.180804;1.282318
0.520;-1.220763;1.288165
0.530;-1.262117;1.294472
0.540;-1.304811;1.301640
0.550;-1.348789;1.309839
0.560;-1.393875;1.318952
0.570;-1.439714;1.328635
0.580;-1.485819;1.338460
0.590;-1.531668;1.348068
0.600;-1.576841;1.357277
0.610;-1.621106;1.366094
0.620;-1.664446;1.374646
0.630;-1.706982;1.383076
0.640;-1.748834;1.391443
0.650;-1.789983;1.399663
0.660;-1.830182;1.407467
0.670;-1.868943;1.414429
0.680;-1.905559;1.420088
0.690;-1.939164;1.424150
0.700;-1.968819;1.426661
0.710;-1.993671;1.428034
0.720;-2.013123;1.428888
0.730;-2.026975;1.429782
0.740;-2.035469;1.430988
0.750;-2.039217;1.432412
0.760;-2.039039;1.433666
0.770;-2.035751;1.434267
0.780;-2.029995;1.433836
0.790;-2.022170;1.432278
0.800;-2.012510;1.429859
0.810;-2.001249;1.427163
0.820;-1.988778;1.424939
0.830;-1.975664;1.423874
0.840;-1.962516;1.424402
0.850;-1.949781;1.426588
0.860;-1.937586;1.430124
0.870;-1.925702;1.434404
0.880;-1.913665;1.438661
0.890;-1.900986;1.442138
0.900;-1.887349;1.444256
0.910;-1.872695;1.444714
0.920;-1.857131;1.443530
0.930;-1.840745;1.441009
0.940;-1.823468;1.437684
0.950;-1.805082;1.434230
0.960;-1.785371;1.431329
0.970;-1.764310;1.429481
0.980;-1.742147;1.428834
0.990;-1.719342;1.429119
1.000;-1.696379;1.429766
1.010;-1.673594;1.430144
1.020;-1.651112;1.429834
1.030;-1.628931;1.428814
1.040;-1.607040;1.427500
1.050;-1.585470;1.426605
1.060;-1.564232;1.426861
1.070;-1.543189;1.428686
1.080;-1.521966;1.431961
1.090;-1.499962;1.436050
1.100;-1.476500;1.440054
1.110;-1.451054;1.443191
1.120;-1.423433;1.445083
1.130;-1.393856;1.445818
1.140;-1.362873;1.445804
1.150;-1.331242;1.445514
1.160;-1.299809;1.445300
1.170;-1.269434;1.445313
1.180;-1.240921;1.445542
1.190;-1.214965;1.445873
1.200;-1.192123;1.446177
1.210;-1.172826;1.446386
1.220;-1.157391;1.446531
1.230;-1.145990;1.446698
1.240;-1.138583;1.446895
1.250;-1.134865;1.446943
1.260;-1.134308;1.446485
1.270;-1.136285;1.445128
1.280;-1.140246;1.442662
1.290;-1.145840;1.439192
1.300;-1.152932;1.435139
1.310;-1.161510;1.431097
1.320;-1.171550;1.427591
1.330;-1.182897;1.424866
1.340;-1.195262;1.422803
1.350;-1.208315;1.421012
1.360;-1.221830;1.419054
1.370;-1.235789;1.416630
1.380;-1.250354;1.413646
1.390;-1.265741;1.410203
1.400;-1.282063;1.406577
1.410;-1.299229;1.403213
1.420;-1.316934;1.400655
1.430;-1.334742;1.399381
1.440;-1.352199;1.399571
1.450;-1.368948;1.400941
1.460;-1.384796;1.402746
1.470;-1.399726;1.404015
1.480;-1.413849;1.403922
1.490;-1.427324;1.402096
1.500;-1.440269;1.398707
1.510;-1.452715;1.394290
1.520;-1.464644;1.389440
1.530;-1.476089;1.384561
1.540;-1.487247;1.379799
1.550;-1.498500;1.375122
1.560;-1.510318;1.370461
1.570;-1.523060;1.365788
1.580;-1.536781;1.361112
1.590;-1.551125;1.356418
1.600;-1.565369;1.351604
1.610;-1.578603;1.346471
1.620;-1.590005;1.340793
1.630;-1.599107;1.334458
1.640;-1.605924;1.327583
1.650;-1.610914;1.320521
1.660;-1.614758;1.313723
1.670;-1.618126;1.307529
1.680;-1.621520;1.302024
1.690;-1.625261;1.297014
1.700;-1.629552;1.292170
1.710;-1.634550;1.287220
1.720;-1.640405;1.282106
1.730;-1.647261;1.276992
1.740;-1.655248;1.272171
1.750;-1.664455;1.267907
1.760;-1.674922;1.264308
1.770;-1.686637;1.261270
1.780;-1.699524;1.258488
1.790;-1.713405;1.255570
1.800;-1.727953;1.252184
1.810;-1.742722;1.248179
1.820;-1.757279;1.243618
1.830;-1.771403;1.238719
1.840;-1.785243;1.233778
1.850;-1.799330;1.229103
1.860;-1.814433;1.224981
1.870;-1.831310;1.221651
1.880;-1.850456;1.219287
1.890;-1.871964;1.217955
1.900;-1.895547;1.217572
1.910;-1.920716;1.217894
1.920;-1.946999;1.218555
1.930;-1.974071;1.219162
1.940;-2.001697;1.219451
1.950;-2.029554;1.219415
1.960;-2.057062;1.219312
1.970;-2.083380;1.219500
1.980;-2.107600;1.220189
1.990;-2.129035;1.221288
2.000;-2.147459;1.222489
2.010;-2.163151;1.223489
2.020;-2.176738;1.224184
2.030;-2.188912;1.224695
2.040;-2.200187;1.225244
2.050;-2.210782;1.225981
2.060;-2.220640;1.226863
2.070;-2.229528;1.227644
2.080;-2.237126;1.228003
2.090;-2.243090;1.227741
2.100;-2.247068;1.226948
2.110;-2.248703;1.226012
2.120;-2.247682;1.225456
2.130;-2.243807;1.225708
2.140;-2.237075;1.226922
2.150;-2.227686;1.228942
2.160;-2.215983;1.231374
2.170;-2.202319;1.233731
2.180;-2.186909;1.235564
2.190;-2.169728;1.236557
2.200;-2.150497;1.236577
2.210;-2.128770;1.235694
2.220;-2.104092;1.234180
2.230;-2.076162;1.232465
2.240;-2.044970;1.231022
2.250;-2.010845;1.230193
2.260;-1.974442;1.230037
2.270;-1.936636;1.230290
2.280;-1.898355;1.230488
2.290;-1.860381;1.230192
2.300;-1.823153;1.229217
2.310;-1.786693;1.227741
2.320;-1.750694;1.226273
2.330;-1.714775;1.225521
2.340;-1.678759;1.226178
2.350;-1.642820;1.228696
2.360;-1.607431;1.233095
2.370;-1.573157;1.238883
2.380;-1.540451;1.245159
2.390;-1.509557;1.250857
2.400;-1.480545;1.255061
2.410;-1.453403;1.257236
2.420;-1.428135;1.257312
2.430;-1.404810;1.255620
2.440;-1.383559;1.252749
2.450;-1.364500;1.249373
2.460;-1.347592;1.246091
2.470;-1.332432;1.243314
2.480;-1.318144;1.241241
2.490;-1.303467;1.239892
2.500;-1.287095;1.239194
2.510;-1.268091;1.239046
2.520;-1.246176;1.239330
2.530;-1.221750;1.239827
2.540;-1.195659;1.240128
2.550;-1.168852;1.239626
2.560;-1.142090;1.237663
2.570;-1.115808;1.233797
2.580;-1.090174;1.228029
2.590;-1.065263;1.220878
2.600;-1.041229;1.213210
2.610;-1.018352;1.205904
2.620;-0.996939;1.199499
2.630;-0.977166;1.194007
2.640;-0.958992;1.188954
2.650;-0.942204;1.183622
2.660;-0.926567;1.177379
2.670;-0.911981;1.169989
2.680;-0.898549;1.161757
2.690;-0.886509;1.153428
2.700;-0.876082;1.145847
2.710;-0.867306;1.139539
2.720;-0.859978;1.134408
2.730;-0.853724;1.129704
2.740;-0.848189;1.124267
2.750;-0.843202;1.116923
2.760;-0.838827;1.106852
2.770;-0.835247;1.093802
2.780;-0.832545;1.078128
2.790;-0.830512;1.060681
2.800;-0.828625;1.042614
2.810;-0.826222;1.025125
2.820;-0.822792;1.009196
2.830;-0.818217;0.995367
2.840;-0.812838;0.983616
2.850;-0.807331;0.973380
2.860;-0.802460;0.963756
2.870;-0.798842;0.953829
2.880;-0.796802;0.943044
2.890;-0.796339;0.931450
2.900;-0.797212;0.919693
2.910;-0.799074;0.908757
2.920;-0.801617;0.899584
2.930;-0.804673;0.892764
2.940;-0.808252;0.888400
2.950;-0.812492;0.886158
2.960;-0.817555;0.885414
2.970;-0.823536;0.885425
2.980;-0.830419;0.885461
2.990;-0.838099;0.884915
3.000;-0.846422;0.883394
3.010;-0.855239;0.880786
3.020;-0.864455;0.877262
3.030;-0.874036;0.873180
3.040;-0.883994;0.868892
3.050;-0.894377;0.864585
3.060;-0.905259;0.860282
3.070;-0.916742;0.855995
3.080;-0.928902;0.851898
3.090;-0.941694;0.848340
3.100;-0.954857;0.845718
3.110;-0.967885;0.844303
3.120;-0.980109;0.844139
3.130;-0.990874;0.845027
3.140;-0.999765;0.846566
3.150;-1.006787;0.848239
3.160;-1.012433;0.849554
3.170;-1.017575;0.850189
3.180;-1.023230;0.850105
3.190;-1.030260;0.849551
3.200;-1.039165;0.848945
3.210;-1.050016;0.848683
3.220;-1.062563;0.848990
3.230;-1.076444;0.849879
3.240;-1.091395;0.851220
3.250;-1.107391;0.852830
3.260;-1.124684;0.854554
3.270;-1.143741;0.856317
3.280;-1.165119;0.858175
3.290;-1.189300;0.860338
3.300;-1.216530;0.863163
3.310;-1.246728;0.867081
3.320;-1.279488;0.872473
3.330;-1.314223;0.879494
3.340;-1.350377;0.887949
3.350;-1.387646;0.897296
3.360;-1.426105;0.906795
3.370;-1.466187;0.915756
3.380;-1.508544;0.923760
3.390;-1.553860;0.930771
3.400;-1.602696;0.937092
3.410;-1.655398;0.943221
3.420;-1.712042;0.949655
3.430;-1.772360;0.956744
3.440;-1.835660;0.964636
3.450;-1.900819;0.973292
3.460;-1.966405;0.982509
3.470;-2.030925;0.991923
3.480;-2.093070;1.001038
3.490;-2.151842;1.009289
3.500;-2.206539;1.016155
3.510;-2.256651;1.021268
3.520;-2.301777;1.024491
3.530;-2.341592;1.025941
3.540;-2.375836;1.025954
3.550;-2.404298;1.025014
3.560;-2.426795;1.023659
3.570;-2.443157;1.022383
3.580;-2.453246;1.021527
3.590;-2.456996;1.021196
3.600;-2.454462;1.021236
3.610;-2.445865;1.021312
3.620;-2.431619;1.021060
3.630;-2.412302;1.020255
3.640;-2.388583;1.018891
3.650;-2.361112;1.017151
3.660;-2.330421;1.015318
3.670;-2.296871;1.013697
3.680;-2.260673;1.012578
3.690;-2.221953;1.012200
3.700;-2.180831;1.012732
3.710;-2.137454;1.014247
3.720;-2.091988;1.016739
3.730;-2.044601;1.020163
3.740;-1.995499;1.024503
3.750;-1.945002;1.029848
3.760;-1.893598;1.036422
3.770;-1.841899;1.044499
3.780;-1.790535;1.054222
3.790;-1.740040;1.065428
3.800;-1.690802;1.077620
3.810;-1.643078;1.090112
3.820;-1.597049;1.102282
3.830;-1.552850;1.113764
3.840;-1.510541;1.124486
3.850;-1.470045;1.134573
3.860;-1.431119;1.144212
3.870;-1.393386;1.153593
3.880;-1.356443;1.162905
3.890;-1.319988;1.172323
3.900;-1.283921;1.181969
3.910;-1.248353;1.191837
3.920;-1.213516;1.201763
3.930;-1.179615;1.211466
3.940;-1.146697;1.220652
3.950;-1.114635;1.229139
3.960;-1.083230;1.236951
3.970;-1.052391;1.244337
3.980;-1.022281;1.251717
3.990;-0.993345;1.259555
4.000;-0.966192;1.268213
4.010;-0.941361;1.277832
4.020;-0.919105;1.288320
4.030;-0.899284;1.299446
4.040;-0.881452;1.310977
4.050;-0.865053;1.322753
4.060;-0.849627;1.334666
4.070;-0.834934;1.346569
4.080;-0.820987;1.358220
4.090;-0.808018;1.369317
4.100;-0.796421;1.379585
4.110;-0.786665;1.388839
4.120;-0.779168;1.396983
4.130;-0.774175;1.403978
4.140;-0.771666;1.409847
4.150;-0.771360;1.414713
4.160;-0.772788;1.418817
4.170;-0.775418;1.422463
4.180;-0.778803;1.425898
4.190;-0.782680;1.429179
4.200;-0.786971;1.432101
4.210;-0.791682;1.434269
4.220;-0.796756;1.435283
4.230;-0.801992;1.434943
4.240;-0.807081;1.433333
4.250;-0.811724;1.430756
4.260;-0.815745;1.427565
4.270;-0.819105;1.424015
4.280;-0.821801;1.420214
4.290;-0.823754;1.416175
4.300;-0.824767;1.411917
4.310;-0.824614;1.407513
4.320;-0.823190;1.403055
4.330;-0.820657;1.398568
4.340;-0.817477;1.393962
4.350;-0.814352;1.389076
4.360;-0.812069;1.383794
4.370;-0.811314;1.378139
4.380;-0.812509;1.372285
4.390;-0.815716;1.366473
4.400;-0.820680;1.360899
4.410;-0.826978;1.355639
4.420;-0.834194;1.350660
4.430;-0.842001;1.345875
4.440;-0.850093;1.341202
4.450;-0.858068;1.336591
4.460;-0.865390;1.332013
4.470;-0.871536;1.327411
4.480;-0.876245;1.322669
4.490;-0.879733;1.317650
4.500;-0.882717;1.312330
4.510;-0.886203;1.306925
4.520;-0.891141;1.301900
4.530;-0.898108;1.297803
4.540;-0.907163;1.295021
4.550;-0.917937;1.293620
4.560;-0.929847;1.293320
4.570;-0.942322;1.293618
4.580;-0.954944;1.293933
4.590;-0.967512;1.293746
4.600;-0.980027;1.292706
4.610;-0.992627;1.290720
4.620;-1.005486;1.288005
4.630;-1.018720;1.285050
4.640;-1.032358;1.282469
4.650;-1.046392;1.280789
4.660;-1.060875;1.280243
4.670;-1.076019;1.280656
4.680;-1.092187;1.281489
4.690;-1.109779;1.282032
4.700;-1.129047;1.281694
4.710;-1.149948;1.280254
4.720;-1.172122;1.277968
4.730;-1.195001;1.275495
4.740;-1.217961;1.273666
4.750;-1.240417;1.273188
4.760;-1.261823;1.274408
4.770;-1.281599;1.277226
4.780;-1.299088;1.281175
4.790;-1.313625;1.285617
4.800;-1.324693;1.289941
4.810;-1.332096;1.293714
4.820;-1.336042;1.296758
4.830;-1.337093;1.299165
4.840;-1.335995;1.301239
4.850;-1.333448;1.303347
4.860;-1.329918;1.305712
4.870;-1.325565;1.308248
4.880;-1.320318;1.310537
4.890;-1.314073;1.311970
4.900;-1.306882;1.311979
4.910;-1.299033;1.310226
4.920;-1.290964;1.306705
4.930;-1.283052;1.301745
4.940;-1.275420;1.295944
4.950;-1.267844;1.290056
4.960;-1.259800;1.284825
4.970;-1.250627;1.280816
4.980;-1.239753;1.278266
4.990;-1.226886;1.277029
5.000;-1.212108;1.276623
5.010;-1.195858;1.276404
5.020;-1.178821;1.275774
5.030;-1.161780;1.274351
5.040;-1.145476;1.272017
5.050;-1.130510;1.268887
5.060;-1.117328;1.265219
5.070;-1.106265;1.261293
5.080;-1.097620;1.257274
5.090;-1.091689;1.253110
5.100;-1.088714;1.248547
5.110;-1.088727;1.243251
5.120;-1.091374;1.236989
5.130;-1.095855;1.229736
5.140;-1.101043;1.221681
5.150;-1.105766;1.213141
5.160;-1.109127;1.204456
5.170;-1.110698;1.195897
5.180;-1.110531;1.187624
5.190;-1.109001;1.179693
5.200;-1.106571;1.172105
5.210;-1.103591;1.164853
5.220;-1.100191;1.157937
5.230;-1.096288;1.151343
5.240;-1.091680;1.144993
5.250;-1.086189;1.138727
5.260;-1.079768;1.132357
5.270;-1.072532;1.125808
5.280;-1.064711;1.119271
5.290;-1.056578;1.113259
5.300;-1.048382;1.108482
5.310;-1.040303;1.105563
5.320;-1.032437;1.104726
5.330;-1.024804;1.105648
5.340;-1.017380;1.107559
5.350;-1.010156;1.109550
5.360;-1.003194;1.110914
5.370;-0.996670;1.111394
5.380;-0.990867;1.111235
5.390;-0.986109;1.111045
5.400;-0.982683;1.111541
5.410;-0.980771;1.113266
5.420;-0.980437;1.116412
5.430;-0.981658;1.120806
5.440;-0.984380;1.126036
5.450;-0.988582;1.131648
5.460;-0.994278;1.137311
5.470;-1.001452;1.142860
5.480;-1.009925;1.148225
5.490;-1.019272;1.153287
5.500;-1.028855;1.157779
5.510;-1.037982;1.161298
5.520;-1.046117;1.163449
5.530;-1.053026;1.164059
5.540;-1.058816;1.163357
5.550;-1.063871;1.162010
5.560;-1.068737;1.160972
5.570;-1.073997;1.161180
5.580;-1.080149;1.163216
5.590;-1.087505;1.167058
5.600;-1.096103;1.172033
5.610;-1.105679;1.176988
5.620;-1.115712;1.180603
5.630;-1.125539;1.181764
5.640;-1.134506;1.179873
5.650;-1.142132;1.175029
5.660;-1.148245;1.167986
5.670;-1.153023;1.159938
5.680;-1.156937;1.152217
5.690;-1.160571;1.145995
5.700;-1.164405;1.142031
5.710;-1.168644;1.140514
5.720;-1.173176;1.141041
5.730;-1.177636;1.142809
5.740;-1.181537;1.144940
5.750;-1.184402;1.146812
5.760;-1.185856;1.148229
5.770;-1.185677;1.149376
5.780;-1.183817;1.150654
5.790;-1.180404;1.152524
5.800;-1.175715;1.155407
5.810;-1.170101;1.159655
5.820;-1.163871;1.165519
5.830;-1.157183;1.173098
5.840;-1.150019;1.182305
5.850;-1.142308;1.192868
5.860;-1.134103;1.204352
5.870;-1.125694;1.216181
5.880;-1.117555;1.227670
5.890;-1.110141;1.238098
5.900;-1.103678;1.246841
5.910;-1.098048;1.253514
5.920;-1.092828;1.258046
5.930;-1.087448;1.260650
5.940;-1.081399;1.261703
5.950;-1.074409;1.261603
5.960;-1.066516;1.260658
5.970;-1.058026;1.259029
5.980;-1.049407;1.256716
5.990;-1.041173;1.253595
6.000;-1.033779;1.249481
6.010;-1.027504;1.244205
6.020;-1.022344;1.237691
6.030;-1.017954;1.229992
6.040;-1.013713;1.221267
6.050;-1.008928;1.211702
6.060;-1.003124;1.201439
6.070;-0.996293;1.190584
6.080;-0.988971;1.179283
6.090;-0.982063;1.167781
6.100;-0.976507;1.156356
6.110;-0.972907;1.145171
6.120;-0.971294;1.134132
6.130;-0.971103;1.122891
6.140;-0.971367;1.110992
6.150;-0.971067;1.098073
6.160;-0.969462;1.084019
6.170;-0.966269;1.068993
6.180;-0.961656;1.053389
6.190;-0.956071;1.037748
6.200;-0.950017;1.022658
6.210;-0.943865;1.008658
6.220;-0.937782;0.996143
6.230;-0.931760;0.985270
6.240;-0.925707;0.975905
6.250;-0.919534;0.967655
6.260;-0.913201;0.959966
6.270;-0.906732;0.952299
6.280;-0.900219;0.944294
6.290;-0.893845;0.935868
6.300;-0.887895;0.927186
6.310;-0.882748;0.918524
6.320;-0.878789;0.910110
6.330;-0.876266;0.902029
6.340;-0.875155;0.894193
6.350;-0.875130;0.886355
6.360;-0.875703;0.878138
6.370;-0.876482;0.869127
6.380;-0.877413;0.859008
6.390;-0.878848;0.847715
6.400;-0.881397;0.835483
6.410;-0.885607;0.822763
6.420;-0.891643;0.810066
6.430;-0.899132;0.797792
6.440;-0.907278;0.786154
6.450;-0.915191;0.775208
6.460;-0.922265;0.764959
6.470;-0.928387;0.755458
6.480;-0.933890;0.746843
6.490;-0.939283;0.739287
6.500;-0.944941;0.732850
6.510;-0.950914;0.727312
6.520;-0.956957;0.722122
6.530;-0.962723;0.716570
6.540;-0.967997;0.710148
6.550;-0.972843;0.702879
6.560;-0.977588;0.695430
6.570;-0.982684;0.688921
6.580;-0.988518;0.684525
6.590;-0.995276;0.683048
6.600;-1.002908;0.684665
6.610;-1.011202;0.688912
6.620;-1.019930;0.694903
6.630;-1.029003;0.701655
6.640;-1.038567;0.708401
6.650;-1.048978;0.714741
6.660;-1.060685;0.720614
6.670;-1.074084;0.726153
6.680;-1.089423;0.731543
6.690;-1.106773;0.736962
6.700;-1.126049;0.742609
6.710;-1.147051;0.748750
6.720;-1.169516;0.755739
6.730;-1.193154;0.763987
6.740;-1.217663;0.773909
6.750;-1.242687;0.785816
6.760;-1.267753;0.799812
6.770;-1.292239;0.815739
6.780;-1.315444;0.833198
6.790;-1.336780;0.851648
6.800;-1.355997;0.870505
6.810;-1.373297;0.889221
6.820;-1.389203;0.907302
6.830;-1.404212;0.924309
6.840;-1.418441;0.939863
6.850;-1.431465;0.953688
6.860;-1.442465;0.965686
6.870;-1.450602;0.975996
6.880;-1.455379;0.985008
6.890;-1.456822;0.993316
6.900;-1.455397;1.001600
6.910;-1.451759;1.010430
6.920;-1.446477;1.020064
6.930;-1.439862;1.030336
6.940;-1.431949;1.040711
6.950;-1.422637;1.050467
6.960;-1.411895;1.058923
6.970;-1.399930;1.065639
6.980;-1.387229;1.070563
6.990;-1.374442;1.074092
7.000;-1.362202;1.077013
7.010;-1.350940;1.080301
7.020;-1.340782;1.084830
7.030;-1.331561;1.091093
7.040;-1.322935;1.099056
7.050;-1.314564;1.108209
7.060;-1.306248;1.117814
7.070;-1.297976;1.127225
7.080;-1.289858;1.136132
7.090;-1.281979;1.144623
7.100;-1.274273;1.153056
7.110;-1.266496;1.161831
7.120;-1.258316;1.171197
7.130;-1.249471;1.181152
7.140;-1.239903;1.191468
7.150;-1.229785;1.201810
7.160;-1.219414;1.211889
7.170;-1.209027;1.221619
7.180;-1.198622;1.231185
7.190;-1.187882;1.240963
7.200;-1.176263;1.251325
7.210;-1.163222;1.262459
7.220;-1.148480;1.274350
7.230;-1.132169;1.286940
7.240;-1.114800;1.300355
7.250;-1.097074;1.314988
7.260;-1.079648;1.331366
7.270;-1.062947;1.349854
7.280;-1.047090;1.370373
7.290;-1.031908;1.392311
7.300;-1.017050;1.414674
7.310;-1.002144;1.436415
7.320;-0.986955;1.456739
7.330;-0.971469;1.475256
7.340;-0.955844;1.491926
7.350;-0.940239;1.506877
7.360;-0.924639;1.520205
7.370;-0.908803;1.531850
7.380;-0.892399;1.541590
7.390;-0.875227;1.549169
7.400;-0.857415;1.554512
7.410;-0.839443;1.557876
7.420;-0.821999;1.559806
7.430;-0.805707;1.560897
7.440;-0.790888;1.561512
7.450;-0.777432;1.561685
7.460;-0.764865;1.561242
7.470;-0.752556;1.560026
7.480;-0.739972;1.558043
7.490;-0.726856;1.555465
7.500;-0.713272;1.552554
7.510;-0.699502;1.549600
7.520;-0.685911;1.546885
7.530;-0.672838;1.544675
7.540;-0.660566;1.543194
7.550;-0.649305;1.542570
7.560;-0.639183;1.542773
7.570;-0.630235;1.543572
7.580;-0.622437;1.544569
7.590;-0.615766;1.545345
7.600;-0.610235;1.545655
7.610;-0.605838;1.545582
7.620;-0.602445;1.545537
7.630;-0.599714;1.546065
7.640;-0.597109;1.547550
7.650;-0.594043;1.549948
7.660;-0.590077;1.552691
7.670;-0.585080;1.554840
7.680;-0.579269;1.555428
7.690;-0.573131;1.553860
7.700;-0.567280;1.550195
7.710;-0.562331;1.545179
7.720;-0.558798;1.539988
7.730;-0.557009;1.535773
7.740;-0.557024;1.533215
7.750;-0.558594;1.532281
7.760;-0.561217;1.532265
7.770;-0.564306;1.532059
7.780;-0.567418;1.530506
7.790;-0.570429;1.526735
7.800;-0.573578;1.520400
7.810;-0.577345;1.511758
7.820;-0.582252;1.501552
7.830;-0.588681;1.490722
7.840;-0.596772;1.480089
7.850;-0.606396;1.470140
7.860;-0.617195;1.460995
7.870;-0.628674;1.452505
7.880;-0.640341;1.444401
7.890;-0.651875;1.436390
7.900;-0.663259;1.428220
7.910;-0.674815;1.419726
7.920;-0.687113;1.410898
7.930;-0.700765;1.401935
7.940;-0.716190;1.393193
7.950;-0.733455;1.384994
7.960;-0.752258;1.377369
7.970;-0.772052;1.369889
7.980;-0.792259;1.361734
