Time[s];COPx[cm];COPy[cm]
0.010;1.701111;-1.088893
0.020;1.706790;-1.094817
0.030;1.713059;-1.102035
0.040;1.720096;-1.111637
0.050;1.727595;-1.124333
0.060;1.734849;-1.140360
0.070;1.740994;-1.159487
0.080;1.745322;-1.181115
0.090;1.747502;-1.204453
0.100;1.747657;-1.228758
0.110;1.746274;-1.253574
0.120;1.743964;-1.278900
0.130;1.741171;-1.305181
0.140;1.737863;-1.333120
0.150;1.733335;-1.363355
0.160;1.726191;-1.396142
0.170;1.714569;-1.431139
0.180;1.696600;-1.467355
0.190;1.671025;-1.503286
0.200;1.637812;-1.537182
0.210;1.598539;-1.567404
0.220;1.556334;-1.592771
0.230;1.515292;-1.612783
0.240;1.479481;-1.627692
0.250;1.451861;-1.638399
0.260;1.433489;-1.646230
0.270;1.423280;-1.652631
0.280;1.418413;-1.658854
0.290;1.415211;-1.665686
0.300;1.410188;-1.673328
0.310;1.400881;-1.681439
0.320;1.386243;-1.689362
0.330;1.366551;-1.696402
0.340;1.343007;-1.702069
0.350;1.317252;-1.706176
0.360;1.290922;-1.708807
0.370;1.265328;-1.710185
0.380;1.241288;-1.710528
0.390;1.219114;-1.709943
0.400;1.198726;-1.708451
0.410;1.179846;-1.706098
0.420;1.162186;-1.703069
0.430;1.145604;-1.699700
0.440;1.130191;-1.696349
0.450;1.116291;-1.693241
0.460;1.104411;-1.690392
0.470;1.095051;-1.687663
0.480;1.088490;-1.684874
0.490;1.084625;-1.681887
0.500;1.082948;-1.678642
0.510;1.082676;-1.675138
0.520;1.082962;-1.671433
0.530;1.083117;-1.667655
0.540;1.082751;-1.663994
0.550;1.081807;-1.660664
0.560;1.080466;-1.657839
0.570;1.078972;-1.655592
0.580;1.077439;-1.653866
0.590;1.075722;-1.652477
0.600;1.073429;-1.651165
0.610;1.070049;-1.649649
0.620;1.065137;-1.647646
0.630;1.058447;-1.644873
0.640;1.050000;-1.641038
0.650;1.040082;-1.635877
0.660;1.029217;-1.629218
0.670;1.018100;-1.621059
0.680;1.007475;-1.611618
0.690;0.997975;-1.601344
0.700;0.989963;-1.590868
0.710;0.983432;-1.580895
0.720;0.977980;-1.572084
0.730;0.972899;-1.564931
0.740;0.967377;-1.559694
0.750;0.960764;-1.556370
0.760;0.952778;-1.554718
0.770;0.943546;-1.554298
0.780;0.933464;-1.554532
0.790;0.922955;-1.554778
0.800;0.912247;-1.554433
0.810;0.901272;-1.553038
0.820;0.889727;-1.550347
0.830;0.877253;-1.546328
0.840;0.863641;-1.541101
0.850;0.848974;-1.534843
0.860;0.833670;-1.527700
0.870;0.818409;-1.519741
0.880;0.803988;-1.511006
0.890;0.791156;-1.501633
0.900;0.780518;-1.492004
0.910;0.772539;-1.482810
0.920;0.767598;-1.474974
0.930;0.766035;-1.469422
0.940;0.768128;-1.466778
0.950;0.774014;-1.467130
0.960;0.783605;-1.469954
0.970;0.796565;-1.474255
0.980;0.812349;-1.478876
0.990;0.830296;-1.482817
1.000;0.849697;-1.485469
1.010;0.869824;-1.486688
1.020;0.889947;-1.486763
1.030;0.909376;-1.486337
1.040;0.927556;-1.486267
1.050;0.944166;-1.487418
1.060;0.959173;-1.490433
1.070;0.972801;-1.495558
1.080;0.985434;-1.502609
1.090;0.997491;-1.511083
1.100;1.009337;-1.520350
1.110;1.021236;-1.529827
1.120;1.033374;-1.539073
1.130;1.045899;-1.547797
1.140;1.058936;-1.555845
1.150;1.072564;-1.563186
1.160;1.086749;-1.569946
1.170;1.101273;-1.576418
1.180;1.115719;-1.583006
1.190;1.129517;-1.590070
1.200;1.142072;-1.597753
1.210;1.152927;-1.605850
1.220;1.161872;-1.613821
1.230;1.168951;-1.620903
1.240;1.174371;-1.626313
1.250;1.178360;-1.629441
1.260;1.181086;-1.629978
1.270;1.182658;-1.627944
1.280;1.183185;-1.623633
1.290;1.182829;-1.617538
1.300;1.181816;-1.610308
1.310;1.180407;-1.602723
1.320;1.178870;-1.595656
1.330;1.177493;-1.589947
1.340;1.176584;-1.586219
1.350;1.176458;-1.584698
1.360;1.177384;-1.585164
1.370;1.179505;-1.587042
1.380;1.182768;-1.589599
1.390;1.186876;-1.592168
1.400;1.191329;-1.594324
1.410;1.195544;-1.595966
1.420;1.199007;-1.597268
1.430;1.201403;-1.598547
1.440;1.202634;-1.600114
1.450;1.202754;-1.602156
1.460;1.201847;-1.604708
1.470;1.199935;-1.607661
1.480;1.196960;-1.610782
1.490;1.192839;-1.613715
1.500;1.187549;-1.615985
1.510;1.181199;-1.617073
1.520;1.174050;-1.616557
1.530;1.166449;-1.614306
1.540;1.158712;-1.610610
1.550;1.150979;-1.606185
1.560;1.143100;-1.601964
1.570;1.134618;-1.598752
1.580;1.124888;-1.596861
1.590;1.113319;-1.595945
1.600;1.099654;-1.595132
1.610;1.084174;-1.593414
1.620;1.067703;-1.590099
1.630;1.051418;-1.585118
1.640;1.036521;-1.579072
1.650;1.023925;-1.573028
1.660;1.014084;-1.568160
1.670;1.006984;-1.565380
1.680;1.002266;-1.565063
1.690;0.999385;-1.566942
1.700;0.997723;-1.570169
1.710;0.996670;-1.573530
1.720;0.995674;-1.575755
1.730;0.994314;-1.575854
1.740;0.992397;-1.573366
1.750;0.990013;-1.568460
1.760;0.987511;-1.561834
1.770;0.985384;-1.554466
1.780;0.984124;-1.547298
1.790;0.984104;-1.540973
1.800;0.985541;-1.535731
1.810;0.988529;-1.531470
1.820;0.993119;-1.527928
1.830;0.999375;-1.524885
1.840;1.007372;-1.522275
1.850;1.017086;-1.520188
1.860;1.028229;-1.518736
1.870;1.040114;-1.517876
1.880;1.051672;-1.517277
1.890;1.061691;-1.516319
1.900;1.069206;-1.514224
1.910;1.073907;-1.510271
1.920;1.076337;-1.503994
1.930;1.077810;-1.495327
1.940;1.080038;-1.484679
1.950;1.084606;-1.472915
1.960;1.092440;-1.461209
1.970;1.103467;-1.450731
1.980;1.116589;-1.442255
1.990;1.130009;-1.435818
2.000;1.141824;-1.430611
2.010;1.150629;-1.425194
2.020;1.155914;-1.417952
2.030;1.158089;-1.407593
2.040;1.158165;-1.393484
2.050;1.157258;-1.375689
2.060;1.156149;-1.354796
2.070;1.155072;-1.331693
2.080;1.153764;-1.307418
2.090;1.151683;-1.283117
2.100;1.148281;-1.260033
2.110;1.143213;-1.239439
2.120;1.136445;-1.222455
2.130;1.128251;-1.209826
2.140;1.119126;-1.201763
2.150;1.109656;-1.197938
2.160;1.100394;-1.197647
2.170;1.091734;-1.200054
2.180;1.083856;-1.204413
2.190;1.076742;-1.210210
2.200;1.070263;-1.217184
2.210;1.064260;-1.225294
2.220;1.058570;-1.234635
2.230;1.052991;-1.245309
2.240;1.047262;-1.257274
2.250;1.041104;-1.270229
2.260;1.034346;-1.283625
2.270;1.027024;-1.296824
2.280;1.019394;-1.309357
2.290;1.011821;-1.321109
2.300;1.004607;-1.332365
2.310;0.997855;-1.343682
2.320;0.991436;-1.355673
2.330;0.985068;-1.368796
2.340;0.978461;-1.383245
2.350;0.971451;-1.398956
2.360;0.964090;-1.415711
2.370;0.956643;-1.433259
2.380;0.949516;-1.451388
2.390;0.943132;-1.469940
2.400;0.937793;-1.488771
2.410;0.933573;-1.507700
2.420;0.930270;-1.526460
2.430;0.927470;-1.544656
2.440;0.924696;-1.561745
2.450;0.921603;-1.577057
2.460;0.918117;-1.589927
2.470;0.914476;-1.599921
2.480;0.911140;-1.607113
2.490;0.908630;-1.612211
2.500;0.907346;-1.616437
2.510;0.907428;-1.621158
2.520;0.908684;-1.627424
2.530;0.910595;-1.635604
2.540;0.912416;-1.645262
2.550;0.913321;-1.655314
2.560;0.912599;-1.664412
2.570;0.909823;-1.671374
2.580;0.904944;-1.675502
2.590;0.898287;-1.676684
2.600;0.890467;-1.675285
2.610;0.882279;-1.671921
2.620;0.874620;-1.667221
2.630;0.868391;-1.661669
2.640;0.864387;-1.655562
2.650;0.863127;-1.649068
2.660;0.864679;-1.642317
2.670;0.868526;-1.635448
2.680;0.873579;-1.628609
2.690;0.878387;-1.621953
2.700;0.881528;-1.615644
2.710;0.882027;-1.609875
2.720;0.879632;-1.604817
2.730;0.874803;-1.600528
2.740;0.868462;-1.596852
2.750;0.861618;-1.593393
2.760;0.855069;-1.589621
2.770;0.849252;-1.585062
2.780;0.844243;-1.579474
2.790;0.839825;-1.572914
2.800;0.835562;-1.565660
2.810;0.830869;-1.558063
2.820;0.825078;-1.550415
2.830;0.817535;-1.542875
2.840;0.807705;-1.535458
2.850;0.795247;-1.528074
2.860;0.780056;-1.520602
2.870;0.762261;-1.512967
2.880;0.742214;-1.505220
2.890;0.720456;-1.497570
2.900;0.697641;-1.490361
2.910;0.674440;-1.483994
2.920;0.651445;-1.478774
2.930;0.629079;-1.474751
2.940;0.607555;-1.471598
2.950;0.586873;-1.468632
2.960;0.566890;-1.464995
2.970;0.547422;-1.459939
2.980;0.528353;-1.453097
2.990;0.509696;-1.444630
3.000;0.491653;-1.435221
3.010;0.474654;-1.425905
3.020;0.459380;-1.417812
3.030;0.446681;-1.411888
3.040;0.437359;-1.408693
3.050;0.431854;-1.408297
3.060;0.430006;-1.410298
3.070;0.431020;-1.413948
3.080;0.433666;-1.418344
3.090;0.436616;-1.422642
3.100;0.438784;-1.426226
3.110;0.439592;-1.428804
3.120;0.439072;-1.430426
3.130;0.437816;-1.431423
3.140;0.436754;-1.432307
3.150;0.436848;-1.433631
3.160;0.438781;-1.435829
3.170;0.442776;-1.439103
3.180;0.448592;-1.443379
3.190;0.455677;-1.448381
3.200;0.463404;-1.453746
3.210;0.471268;-1.459117
3.220;0.478958;-1.464168
3.230;0.486327;-1.468599
3.240;0.493294;-1.472161
3.250;0.499789;-1.474736
3.260;0.505750;-1.476411
3.270;0.511170;-1.477477
3.280;0.516138;-1.478349
3.290;0.520876;-1.479455
3.300;0.525737;-1.481146
3.310;0.531195;-1.483643
3.320;0.537792;-1.486999
3.330;0.546050;-1.491089
3.340;0.556343;-1.495665
3.350;0.568767;-1.500469
3.360;0.583042;-1.505361
3.370;0.598496;-1.510350
3.380;0.614136;-1.515514
3.390;0.628829;-1.520872
3.400;0.641552;-1.526290
3.410;0.651656;-1.531508
3.420;0.659013;-1.536238
3.430;0.664000;-1.540294
3.440;0.667332;-1.543668
3.450;0.669811;-1.546508
3.460;0.672101;-1.549016
3.470;0.674615;-1.551303
3.480;0.677529;-1.553285
3.490;0.680890;-1.554659
3.500;0.684750;-1.554969
3.510;0.689262;-1.553758
3.520;0.694660;-1.550737
3.530;0.701134;-1.545924
3.540;0.708665;-1.539681
3.550;0.716911;-1.532650
3.560;0.725252;-1.525595
3.570;0.732987;-1.519221
3.580;0.739612;-1.514004
3.590;0.745037;-1.510117
3.600;0.749645;-1.507454
3.610;0.754138;-1.505715
3.620;0.759253;-1.504502
3.630;0.765444;-1.503388
3.640;0.772674;-1.501977
3.650;0.780398;-1.499954
3.660;0.787749;-1.497150
3.670;0.793881;-1.493597
3.680;0.798328;-1.489549
3.690;0.801274;-1.485426
3.700;0.803603;-1.481702
3.710;0.806732;-1.478752
3.720;0.812245;-1.476745
3.730;0.821470;-1.475607
3.740;0.835120;-1.475092
3.750;0.853076;-1.474886
3.760;0.874389;-1.474707
3.770;0.897471;-1.474365
3.780;0.920416;-1.473798
3.790;0.941382;-1.473094
3.800;0.958937;-1.472453
3.810;0.972298;-1.472103
3.820;0.981386;-1.472188
3.830;0.986684;-1.472687
3.840;0.988949;-1.473425
3.850;0.988900;-1.474159
3.860;0.987017;-1.474708
3.870;0.983522;-1.475050
3.880;0.978589;-1.475323
3.890;0.972653;-1.475747
3.900;0.966650;-1.476519
3.910;0.962009;-1.477758
3.920;0.960356;-1.479550
3.930;0.963051;-1.482001
3.940;0.970761;-1.485239
3.950;0.983252;-1.489330
3.960;0.999429;-1.494160
3.970;1.017605;-1.499394
3.980;1.035884;-1.504531
3.990;1.052576;-1.509066
4.000;1.066531;-1.512702
4.010;1.077262;-1.515518
4.020;1.084858;-1.517991
4.030;1.089725;-1.520832
4.040;1.092324;-1.524677
4.050;1.093016;-1.529799
4.060;1.092068;-1.535995
4.070;1.089764;-1.542701
4.080;1.086553;-1.549298
4.090;1.083153;-1.555415
4.100;1.080557;-1.561094
4.110;1.079926;-1.566733
4.120;1.082391;-1.572883
4.130;1.088809;-1.579978
4.140;1.099572;-1.588116
4.150;1.114496;-1.596920
4.160;1.132851;-1.605544
4.170;1.153472;-1.612843
4.180;1.174925;-1.617718
4.190;1.195649;-1.619475
4.200;1.214056;-1.618033
4.210;1.228621;-1.613834
4.220;1.238003;-1.607513
4.230;1.241214;-1.599532
4.240;1.237823;-1.590005
4.250;1.228091;-1.578794
4.260;1.212938;-1.565770
4.270;1.193720;-1.551066
4.280;1.171901;-1.535139
4.290;1.148747;-1.518627
4.300;1.125187;-1.502078
4.310;1.101826;-1.485748
4.320;1.079103;-1.469548
4.330;1.057483;-1.453181
4.340;1.037618;-1.436360
4.350;1.020387;-1.419013
4.360;1.006811;-1.401403
4.370;0.997828;-1.384147
4.380;0.994009;-1.368130
4.390;0.995282;-1.354344
4.400;1.000759;-1.343658
4.410;1.008767;-1.336603
4.420;1.017082;-1.333193
4.430;1.023366;-1.332842
4.440;1.025680;-1.334387
4.450;1.022956;-1.336272
4.460;1.015281;-1.336895
4.470;1.003900;-1.335051
4.480;0.990922;-1.330303
4.490;0.978777;-1.323100
4.500;0.969573;-1.314594
4.510;0.964534;-1.306240
4.520;0.963719;-1.299363
4.530;0.966136;-1.294849
4.540;0.970201;-1.293039
4.550;0.974354;-1.293790
4.560;0.977588;-1.296620
4.570;0.979719;-1.300869
4.580;0.981329;-1.305839
4.590;0.983461;-1.310922
4.600;0.987201;-1.315699
4.610;0.993294;-1.320003
4.620;1.001917;-1.323909
4.630;1.012634;-1.327643
4.640;1.024544;-1.331466
4.650;1.036581;-1.335571
4.660;1.047874;-1.340060
4.670;1.058025;-1.344982
4.680;1.067176;-1.350395
4.690;1.075818;-1.356405
4.700;1.084474;-1.363140
4.710;1.093383;-1.370698
4.720;1.102345;-1.379087
4.730;1.110750;-1.388242
4.740;1.117772;-1.398097
4.750;1.122657;-1.408686
4.760;1.124992;-1.420144
4.770;1.124879;-1.432595
4.780;1.122943;-1.445975
4.790;1.120181;-1.459901
4.800;1.117681;-1.473689
4.810;1.116317;-1.486502
4.820;1.116492;-1.497574
4.830;1.118002;-1.506418
4.840;1.120062;-1.512974
4.850;1.121485;-1.517651
4.860;1.120998;-1.521248
4.870;1.117626;-1.524733
4.880;1.111003;-1.528937
4.890;1.101521;-1.534274
4.900;1.090243;-1.540639
4.910;1.078628;-1.547554
4.920;1.068190;-1.554472
4.930;1.060177;-1.561036
4.940;1.055357;-1.567159
4.950;1.053945;-1.572923
4.960;1.055628;-1.578412
4.970;1.059693;-1.583590
4.980;1.065181;-1.588261
4.990;1.071078;-1.592119
5.000;1.076510;-1.594841
5.010;1.080923;-1.596179
5.020;1.084200;-1.596035
5.030;1.086673;-1.594471
5.040;1.088995;-1.591713
5.050;1.091940;-1.588164
5.060;1.096187;-1.584431
5.070;1.102170;-1.581312
5.080;1.110029;-1.579667
5.090;1.119627;-1.580219
5.100;1.130614;-1.583363
5.110;1.142484;-1.589091
5.120;1.154646;-1.597035
5.130;1.166506;-1.606618
5.140;1.177565;-1.617226
5.150;1.187495;-1.628338
5.160;1.196148;-1.639567
5.170;1.203525;-1.650606
5.180;1.209731;-1.661133
5.190;1.214973;-1.670772
5.200;1.219584;-1.679161
5.210;1.224030;-1.686119
5.220;1.228846;-1.691775
5.230;1.234477;-1.696547
5.240;1.241058;-1.700979
5.250;1.248238;-1.705521
5.260;1.255177;-1.710410
5.270;1.260769;-1.715700
5.280;1.263999;-1.721370
5.290;1.264279;-1.727401
5.300;1.261601;-1.733764
5.310;1.256457;-1.740342
5.320;1.249609;-1.746907
5.330;1.241836;-1.753187
5.340;1.233752;-1.759014
5.350;1.225706;-1.764432
5.360;1.217756;-1.769664
5.370;1.209669;-1.774925
5.380;1.200986;-1.780207
5.390;1.191140;-1.785193
5.400;1.179624;-1.789393
5.410;1.166163;-1.792416
5.420;1.150841;-1.794213
5.430;1.134171;-1.795150
5.440;1.117083;-1.795906
5.450;1.100832;-1.797260
5.460;1.086794;-1.799871
5.470;1.076181;-1.804102
5.480;1.069743;-1.809951
5.490;1.067568;-1.817098
5.500;1.069042;-1.825046
5.510;1.072991;-1.833296
5.520;1.077963;-1.841476
5.530;1.082561;-1.849419
5.540;1.085760;-1.857161
5.550;1.087111;-1.864877
5.560;1.086792;-1.872777
5.570;1.085463;-1.880982
5.580;1.083963;-1.889434
5.590;1.082970;-1.897869
5.600;1.082757;-1.905889
5.610;1.083153;-1.913114
5.620;1.083700;-1.919338
5.630;1.083896;-1.924629
5.640;1.083393;-1.929291
5.650;1.082065;-1.933726
5.660;1.079913;-1.938247
5.670;1.076884;-1.942940
5.680;1.072700;-1.947647
5.690;1.066822;-1.952079
5.700;1.058591;-1.955989
5.710;1.047536;-1.959347
5.720;1.033713;-1.962380
5.730;1.017897;-1.965472
5.740;1.001501;-1.968952
5.750;0.986199;-1.972886
5.760;0.973403;-1.976994
5.770;0.963801;-1.980738
5.780;0.957165;-1.983522
5.790;0.952486;-1.984925
5.800;0.948366;-1.984844
5.810;0.943491;-1.983504
5.820;0.937016;-1.981323
5.830;0.928768;-1.978701
5.840;0.919228;-1.975833
5.850;0.909356;-1.972637
5.860;0.900326;-1.968834
5.870;0.893264;-1.964118
5.880;0.889055;-1.958386
5.890;0.888237;-1.951892
5.900;0.890954;-1.945254
5.910;0.896960;-1.939282
5.920;0.905655;-1.934678
5.930;0.916156;-1.931788
5.940;0.927403;-1.930516
5.950;0.938295;-1.930428
5.960;0.947845;-1.930966
5.970;0.955300;-1.931627
5.980;0.960213;-1.932071
5.990;0.962416;-1.932124
6.000;0.961966;-1.931734
6.010;0.959101;-1.930886
6.020;0.954261;-1.929549
6.030;0.948106;-1.927694
6.040;0.941513;-1.925371
6.050;0.935467;-1.922801
6.060;0.930887;-1.920368
6.070;0.928405;-1.918490
6.080;0.928178;-1.917449
6.090;0.929822;-1.917245
6.100;0.932511;-1.917564
6.110;0.935220;-1.917872
6.120;0.937028;-1.917582
6.130;0.937389;-1.916245
6.140;0.936271;-1.913704
6.150;0.934147;-1.910180
6.160;0.931820;-1.906258
6.170;0.930147;-1.902753
6.180;0.929751;-1.900506
6.190;0.930810;-1.900163
6.200;0.933004;-1.901994
6.210;0.935633;-1.905820
6.220;0.937858;-1.911092
6.230;0.938982;-1.917104
6.240;0.938651;-1.923254
6.250;0.936944;-1.929227
6.260;0.934342;-1.935044
6.270;0.931603;-1.940974
6.280;0.929561;-1.947387
6.290;0.928866;-1.954616
6.300;0.929721;-1.962835
6.310;0.931707;-1.971985
6.320;0.933815;-1.981758
6.330;0.934707;-1.991662
6.340;0.933142;-2.001144
6.350;0.928407;-2.009741
6.360;0.920553;-2.017217
6.370;0.910341;-2.023656
6.380;0.898951;-2.029463
6.390;0.887606;-2.035291
6.400;0.877268;-2.041908
6.410;0.868510;-2.050073
6.420;0.861530;-2.060429
6.430;0.856224;-2.073412
6.440;0.852254;-2.089158
6.450;0.849073;-2.107453
6.460;0.845977;-2.127747
6.470;0.842236;-2.149246
6.480;0.837293;-2.171064
6.490;0.830989;-2.192391
6.500;0.823707;-2.212656
6.510;0.816347;-2.231643
6.520;0.810118;-2.249550
6.530;0.806186;-2.266960
6.540;0.805308;-2.284738
6.550;0.807571;-2.303862
6.560;0.812331;-2.325231
6.570;0.818359;-2.349464
6.580;0.824163;-2.376720
6.590;0.828377;-2.406569
6.600;0.830133;-2.437979
6.610;0.829299;-2.469462
6.620;0.826534;-2.499358
6.630;0.823122;-2.526205
6.640;0.820601;-2.549084
6.650;0.820286;-2.567821
6.660;0.822835;-2.582985
6.670;0.828038;-2.595658
6.680;0.834914;-2.607059
6.690;0.842033;-2.618156
6.700;0.847933;-2.629397
6.710;0.851499;-2.640649
6.720;0.852202;-2.651319
6.730;0.850174;-2.660601
6.740;0.846099;-2.667732
6.750;0.840947;-2.672214
6.760;0.835658;-2.673938
6.770;0.830884;-2.673216
6.780;0.826890;-2.670713
6.790;0.823596;-2.667297
6.800;0.820737;-2.663799
6.810;0.818037;-2.660742
6.820;0.815345;-2.658085
6.830;0.812701;-2.655102
6.840;0.810325;-2.650484
6.850;0.808537;-2.642661
6.860;0.807649;-2.630240
6.870;0.807877;-2.612391
6.880;0.809281;-2.589063
6.890;0.811770;-2.560970
6.900;0.815159;-2.529355
6.910;0.819242;-2.495614
6.920;0.823878;-2.460862
6.930;0.829026;-2.425589
6.940;0.834775;-2.389531
6.950;0.841333;-2.351832
6.960;0.849004;-2.311435
6.970;0.858098;-2.267575
6.980;0.868786;-2.220200
6.990;0.880954;-2.170186
7.000;0.894137;-2.119266
7.010;0.907606;-2.069694
7.020;0.920560;-2.023730
7.030;0.932370;-1.983139
7.040;0.942772;-1.948827
7.050;0.951924;-1.920713
7.060;0.960317;-1.897839
7.070;0.968571;-1.878675
7.080;0.977229;-1.861534
7.090;0.986629;-1.844987
7.100;0.996870;-1.828139
7.110;1.007863;-1.810677
7.120;1.019381;-1.792686
7.130;1.031113;-1.774366
7.140;1.042738;-1.755795
7.150;1.054025;-1.736842
7.160;1.064903;-1.717242
7.170;1.075463;-1.696768
7.180;1.085855;-1.675425
7.190;1.096136;-1.653575
7.200;1.106128;-1.631958
7.210;1.115384;-1.611566
7.220;1.123279;-1.593405
7.230;1.129199;-1.578215
7.240;1.132734;-1.566285
7.250;1.133806;-1.557422
7.260;1.132678;-1.551085
7.270;1.129902;-1.546570
7.280;1.126205;-1.543183
7.290;1.122346;-1.540352
7.300;1.118970;-1.537679
7.310;1.116469;-1.534953
7.320;1.114892;-1.532109
7.330;1.113940;-1.529180
7.340;1.113032;-1.526241
7.350;1.111449;-1.523372
7.360;1.108522;-1.520667
7.370;1.103831;-1.518241
7.380;1.097342;-1.516251
7.390;1.089447;-1.514873
7.400;1.080871;-1.514244
7.410;1.072486;-1.514375
7.420;1.065069;-1.515044
7.430;1.059096;-1.515718
7.440;1.054649;-1.515545
7.450;1.051427;-1.513450
7.460;1.048849;-1.508316
7.470;1.046173;-1.499215
7.480;1.042617;-1.485608
7.490;1.037483;-1.467458
7.500;1.030310;-1.445289
7.510;1.021007;-1.420184
7.520;1.009901;-1.393745
7.530;0.997654;-1.367930
7.540;0.985059;-1.344745
7.550;0.972810;-1.325832
7.560;0.961349;-1.312094
7.570;0.950834;-1.303491
7.580;0.941217;-1.299053
7.590;0.932331;-1.297146
7.600;0.923944;-1.295926
7.610;0.915751;-1.293893
7.620;0.907342;-1.290329
7.630;0.898178;-1.285480
7.640;0.887623;-1.280400
7.650;0.875037;-1.276539
7.660;0.859941;-1.275253
7.670;0.842175;-1.277370
7.680;0.821981;-1.282944
7.690;0.799950;-1.291250
7.700;0.776829;-1.301014
7.710;0.753238;-1.310772
7.720;0.729401;-1.319260
7.730;0.704975;-1.325720
7.740;0.679041;-1.330095
7.750;0.650228;-1.333053
7.760;0.616969;-1.335815
7.770;0.577819;-1.339800
7.780;0.531837;-1.346160
7.790;0.478971;-1.355363
7.800;0.420386;-1.366983
7.810;0.358621;-1.379821
7.820;0.297444;-1.392320
7.830;0.241286;-1.403132
7.840;0.194313;-1.411609
7.850;0.159363;-1.418033
7.860;0.137104;-1.423509
7.870;0.125773;-1.429598
7.880;0.121607;-1.437825
7.890;0.119871;-1.449258
7.900;0.116129;-1.464301
7.910;0.107340;-1.482742
7.920;0.092455;-1.503987
7.930;0.072380;-1.527317
7.940;0.049408;-1.552044
7.950;0.026385;-1.577537
7.960;0.005937;-1.603195
7.970;-0.010055;-1.628427
7.980;-0.020650;-1.652655
