Time[s];COPx[cm];COPy[cm]
0.010;-2.102936;-0.990812
0.020;-2.092567;-0.994022
0.030;-2.081298;-0.996980
0.040;-2.068348;-0.999394
0.050;-2.053225;-1.001027
0.060;-2.035831;-1.001765
0.070;-2.016489;-1.001672
0.080;-1.995852;-1.000977
0.090;-1.974750;-1.000005
0.100;-1.954014;-0.999077
0.110;-1.934332;-0.998457
0.120;-1.916173;-0.998320
0.130;-1.899768;-0.998718
0.140;-1.885134;-0.999552
0.150;-1.872114;-1.000565
0.160;-1.860427;-1.001387
0.170;-1.849748;-1.001640
0.180;-1.839823;-1.001041
0.190;-1.830583;-0.999474
0.200;-1.822193;-0.996978
0.210;-1.815022;-0.993685
0.220;-1.809532;-0.989718
0.230;-1.806158;-0.985149
0.240;-1.805209;-0.980013
0.250;-1.806816;-0.974387
0.260;-1.810928;-0.968451
0.270;-1.817351;-0.962528
0.280;-1.825826;-0.957034
0.290;-1.836128;-0.952361
0.300;-1.848148;-0.948735
0.310;-1.861891;-0.946120
0.320;-1.877364;-0.944241
0.330;-1.894398;-0.942710
0.340;-1.912488;-0.941194
0.350;-1.930759;-0.939532
0.360;-1.948074;-0.937762
0.370;-1.963254;-0.936055
0.380;-1.975316;-0.934587
0.390;-1.983664;-0.933426
0.400;-1.988213;-0.932491
0.410;-1.989426;-0.931596
0.420;-1.988269;-0.930546
0.430;-1.986063;-0.929212
0.440;-1.984216;-0.927573
0.450;-1.983892;-0.925720
0.460;-1.985694;-0.923798
0.470;-1.989490;-0.921919
0.480;-1.994470;-0.920055
0.490;-1.999421;-0.917970
0.500;-2.003140;-0.915243
0.510;-2.004812;-0.911402
0.520;-2.004228;-0.906105
0.530;-2.001789;-0.899315
0.540;-1.998361;-0.891356
0.550;-1.995043;-0.882807
0.560;-1.992920;-0.874296
0.570;-1.992805;-0.866293
0.580;-1.995021;-0.859007
0.590;-1.999286;-0.852419
0.600;-2.004767;-0.846386
0.610;-2.010315;-0.840729
0.620;-2.014813;-0.835301
0.630;-2.017521;-0.830028
0.640;-2.018320;-0.824960
0.650;-2.017749;-0.820307
0.660;-2.016838;-0.816432
0.670;-2.016735;-0.813775
0.680;-2.018278;-0.812733
0.690;-2.021668;-0.813494
0.700;-2.026380;-0.815925
0.710;-2.031351;-0.819542
0.720;-2.035359;-0.823645
0.730;-2.037444;-0.827556
0.740;-2.037208;-0.830875
0.750;-2.034906;-0.833647
0.760;-2.031289;-0.836380
0.770;-2.027289;-0.839900
0.780;-2.023678;-0.845074
0.790;-2.020818;-0.852480
0.800;-2.018587;-0.862185
0.810;-2.016491;-0.873739
0.820;-2.013895;-0.886413
0.830;-2.010247;-0.899554
0.840;-2.005206;-0.912856
0.850;-1.998635;-0.926398
0.860;-1.990533;-0.940456
0.870;-1.980962;-0.955205
0.880;-1.970014;-0.970493
0.890;-1.957829;-0.985785
0.900;-1.944628;-1.000275
0.910;-1.930782;-1.013111
0.920;-1.916850;-1.023627
0.930;-1.903573;-1.031512
0.940;-1.891764;-1.036888
0.950;-1.882108;-1.040272
0.960;-1.874923;-1.042427
0.970;-1.870004;-1.044133
0.980;-1.866625;-1.045967
0.990;-1.863738;-1.048172
1.000;-1.860256;-1.050693
1.010;-1.855322;-1.053330
1.020;-1.848466;-1.055925
1.030;-1.839642;-1.058474
1.040;-1.829172;-1.061134
1.050;-1.817604;-1.064154
1.060;-1.805541;-1.067757
1.070;-1.793477;-1.072028
1.080;-1.781700;-1.076843
1.090;-1.770302;-1.081862
1.100;-1.759260;-1.086606
1.110;-1.748563;-1.090590
1.120;-1.738290;-1.093463
1.130;-1.728613;-1.095137
1.140;-1.719718;-1.095834
1.150;-1.711693;-1.096052
1.160;-1.704405;-1.096406
1.170;-1.697430;-1.097425
1.180;-1.690078;-1.099350
1.190;-1.681536;-1.102044
1.200;-1.671099;-1.105046
1.210;-1.658446;-1.107764
1.220;-1.643816;-1.109740
1.230;-1.627997;-1.110872
1.240;-1.612110;-1.111496
1.250;-1.597284;-1.112296
1.260;-1.584394;-1.114053
1.270;-1.573962;-1.117345
1.280;-1.566217;-1.122297
1.290;-1.561229;-1.128480
1.300;-1.558974;-1.134981
1.310;-1.559310;-1.140627
1.320;-1.561905;-1.144294
1.330;-1.566191;-1.145213
1.340;-1.571411;-1.143191
1.350;-1.576731;-1.138665
1.360;-1.581394;-1.132569
1.370;-1.584810;-1.126047
1.380;-1.586603;-1.120116
1.390;-1.586606;-1.115432
1.400;-1.584833;-1.112227
1.410;-1.581464;-1.110407
1.420;-1.576820;-1.109710
1.430;-1.571365;-1.109860
1.440;-1.565699;-1.110641
1.450;-1.560527;-1.111930
1.460;-1.556555;-1.113664
1.470;-1.554334;-1.115785
1.480;-1.554083;-1.118169
1.490;-1.555568;-1.120596
1.500;-1.558119;-1.122749
1.510;-1.560798;-1.124249
1.520;-1.562674;-1.124712
1.530;-1.563102;-1.123844
1.540;-1.561927;-1.121563
1.550;-1.559525;-1.118088
1.560;-1.556678;-1.113924
1.570;-1.554341;-1.109726
1.580;-1.553383;-1.106064
1.590;-1.554380;-1.103198
1.600;-1.557511;-1.100987
1.610;-1.562553;-1.098972
1.620;-1.568952;-1.096595
1.630;-1.575959;-1.093434
1.640;-1.582802;-1.089336
1.650;-1.588878;-1.084414
1.660;-1.593919;-1.078949
1.670;-1.598072;-1.073257
1.680;-1.601864;-1.067594
1.690;-1.606056;-1.062114
1.700;-1.611445;-1.056863
1.710;-1.618681;-1.051819
1.720;-1.628121;-1.046933
1.730;-1.639757;-1.042150
1.740;-1.653234;-1.037417
1.750;-1.667930;-1.032693
1.760;-1.683086;-1.027971
1.770;-1.697952;-1.023295
1.780;-1.711925;-1.018752
1.790;-1.724668;-1.014430
1.800;-1.736201;-1.010387
1.810;-1.746922;-1.006628
1.820;-1.757551;-1.003109
1.830;-1.768968;-0.999761
1.840;-1.782011;-0.996533
1.850;-1.797273;-0.993438
1.860;-1.814963;-0.990589
1.870;-1.834833;-0.988194
1.880;-1.856217;-0.986510
1.890;-1.878177;-0.985751
1.900;-1.899747;-0.985981
1.910;-1.920165;-0.987065
1.920;-1.939012;-0.988690
1.930;-1.956195;-0.990472
1.940;-1.971802;-0.992121
1.950;-1.985897;-0.993570
1.960;-1.998385;-0.995011
1.970;-2.008995;-0.996788
1.980;-2.017430;-0.999204
1.990;-2.023608;-1.002348
2.000;-2.027855;-1.006017
2.010;-2.030931;-1.009765
2.020;-2.033847;-1.013048
2.030;-2.037524;-1.015403
2.040;-2.042439;-1.016589
2.050;-2.048387;-1.016662
2.060;-2.054494;-1.015945
2.070;-2.059498;-1.014944
2.080;-2.062175;-1.014194
2.090;-2.061739;-1.014104
2.100;-2.058040;-1.014865
2.110;-2.051522;-1.016461
2.120;-2.043023;-1.018762
2.130;-2.033520;-1.021635
2.140;-2.023908;-1.025009
2.150;-2.014869;-1.028880
2.160;-2.006823;-1.033270
2.170;-1.999957;-1.038167
2.180;-1.994303;-1.043454
2.190;-1.989827;-1.048857
2.200;-1.986514;-1.053964
2.210;-1.984384;-1.058317
2.220;-1.983429;-1.061553
2.230;-1.983500;-1.063541
2.240;-1.984222;-1.064424
2.250;-1.985012;-1.064534
2.260;-1.985212;-1.064240
2.270;-1.984291;-1.063829
2.280;-1.981999;-1.063484
2.290;-1.978419;-1.063315
2.300;-1.973920;-1.063397
2.310;-1.969059;-1.063776
2.320;-1.964457;-1.064461
2.330;-1.960664;-1.065422
2.340;-1.958009;-1.066601
2.350;-1.956492;-1.067893
2.360;-1.955761;-1.069140
2.370;-1.955214;-1.070132
2.380;-1.954170;-1.070667
2.390;-1.952064;-1.070598
2.400;-1.948574;-1.069862
2.410;-1.943697;-1.068453
2.420;-1.937744;-1.066357
2.430;-1.931295;-1.063513
2.440;-1.925075;-1.059823
2.450;-1.919791;-1.055207
2.460;-1.915951;-1.049664
2.470;-1.913734;-1.043296
2.480;-1.912921;-1.036313
2.490;-1.912921;-1.029024
2.500;-1.912854;-1.021836
2.510;-1.911702;-1.015209
2.520;-1.908530;-1.009541
2.530;-1.902731;-1.005013
2.540;-1.894231;-1.001480
2.550;-1.883518;-0.998479
2.560;-1.871483;-0.995376
2.570;-1.859125;-0.991602
2.580;-1.847268;-0.986879
2.590;-1.836415;-0.981356
2.600;-1.826767;-0.975624
2.610;-1.818349;-0.970577
2.620;-1.811164;-0.967163
2.630;-1.805291;-0.966038
2.640;-1.800900;-0.967272
2.650;-1.798180;-0.970227
2.660;-1.797199;-0.973732
2.670;-1.797764;-0.976485
2.680;-1.799394;-0.977523
2.690;-1.801431;-0.976539
2.700;-1.803283;-0.973930
2.710;-1.804654;-0.970612
2.720;-1.805645;-0.967721
2.730;-1.806670;-0.966293
2.740;-1.808276;-0.967030
2.750;-1.810933;-0.970185
2.760;-1.814900;-0.975569
2.770;-1.820182;-0.982664
2.780;-1.826601;-0.990779
2.790;-1.833910;-0.999218
2.800;-1.841898;-1.007431
2.810;-1.850434;-1.015096
2.820;-1.859445;-1.022138
2.830;-1.868860;-1.028650
2.840;-1.878558;-1.034765
2.850;-1.888341;-1.040532
2.860;-1.897941;-1.045831
2.870;-1.907069;-1.050370
2.880;-1.915512;-1.053767
2.890;-1.923232;-1.055681
2.900;-1.930417;-1.055963
2.910;-1.937447;-1.054756
2.920;-1.944790;-1.052479
2.930;-1.952865;-1.049695
2.940;-1.961910;-1.046915
2.950;-1.971882;-1.044460
2.960;-1.982397;-1.042427
2.970;-1.992754;-1.040732
2.980;-2.002061;-1.039216
2.990;-2.009471;-1.037731
3.000;-2.014448;-1.036203
3.010;-2.016959;-1.034634
3.020;-2.017529;-1.033079
3.030;-2.017124;-1.031628
3.040;-2.016914;-1.030394
3.050;-2.017946;-1.029488
3.060;-2.020826;-1.028980
3.070;-2.025517;-1.028875
3.080;-2.031337;-1.029136
3.090;-2.037183;-1.029724
3.100;-2.041894;-1.030618
3.110;-2.044627;-1.031810
3.120;-2.045096;-1.033280
3.130;-2.043611;-1.034978
3.140;-2.040925;-1.036809
3.150;-2.037966;-1.038625
3.160;-2.035543;-1.040227
3.170;-2.034118;-1.041413
3.180;-2.033688;-1.042050
3.190;-2.033805;-1.042170
3.200;-2.033723;-1.042000
3.210;-2.032623;-1.041940
3.220;-2.029859;-1.042458
3.230;-2.025159;-1.043942
3.240;-2.018740;-1.046569
3.250;-2.011302;-1.050233
3.260;-2.003898;-1.054577
3.270;-1.997672;-1.059098
3.280;-1.993545;-1.063280
3.290;-1.991959;-1.066684
3.300;-1.992793;-1.069008
3.310;-1.995500;-1.070100
3.320;-1.999385;-1.069961
3.330;-2.003895;-1.068742
3.340;-2.008812;-1.066730
3.350;-2.014287;-1.064299
3.360;-2.020743;-1.061831
3.370;-2.028680;-1.059622
3.380;-2.038467;-1.057823
3.390;-2.050189;-1.056427
3.400;-2.063609;-1.055304
3.410;-2.078233;-1.054264
3.420;-2.093438;-1.053142
3.430;-2.108577;-1.051874
3.440;-2.123031;-1.050519
3.450;-2.136231;-1.049230
3.460;-2.147678;-1.048176
3.470;-2.157000;-1.047491
3.480;-2.164005;-1.047246
3.490;-2.168701;-1.047466
3.500;-2.171267;-1.048145
3.510;-2.171988;-1.049243
3.520;-2.171208;-1.050655
3.530;-2.169307;-1.052161
3.540;-2.166694;-1.053418
3.550;-2.163764;-1.054013
3.560;-2.160815;-1.053575
3.570;-2.157945;-1.051891
3.580;-2.155005;-1.048967
3.590;-2.151633;-1.045010
3.600;-2.147383;-1.040353
3.610;-2.141885;-1.035373
3.620;-2.134949;-1.030442
3.630;-2.126586;-1.025896
3.640;-2.116956;-1.021986
3.650;-2.106282;-1.018838
3.660;-2.094812;-1.016432
3.670;-2.082807;-1.014641
3.680;-2.070555;-1.013296
3.690;-2.058350;-1.012258
3.700;-2.046455;-1.011456
3.710;-2.035037;-1.010884
3.720;-2.024126;-1.010561
3.730;-2.013654;-1.010481
3.740;-2.003560;-1.010544
3.750;-1.993894;-1.010489
3.760;-1.984841;-1.009880
3.770;-1.976637;-1.008180
3.780;-1.969441;-1.004937
3.790;-1.963241;-0.999966
3.800;-1.957847;-0.993456
3.810;-1.952942;-0.985917
3.820;-1.948176;-0.978008
3.830;-1.943243;-0.970328
3.840;-1.937943;-0.963271
3.850;-1.932232;-0.956961
3.860;-1.926265;-0.951301
3.870;-1.920392;-0.946061
3.880;-1.915099;-0.940992
3.890;-1.910876;-0.935871
3.900;-1.908096;-0.930498
3.910;-1.906937;-0.924650
3.920;-1.907383;-0.918087
3.930;-1.909272;-0.910640
3.940;-1.912340;-0.902349
3.950;-1.916253;-0.893572
3.960;-1.920635;-0.884965
3.970;-1.925122;-0.877309
3.980;-1.929435;-0.871264
3.990;-1.933409;-0.867144
4.000;-1.936978;-0.864819
4.010;-1.940142;-0.863778
4.020;-1.942942;-0.863311
4.030;-1.945442;-0.862755
4.040;-1.947718;-0.861694
4.050;-1.949830;-0.860057
4.060;-1.951800;-0.858111
4.070;-1.953589;-0.856337
4.080;-1.955108;-0.855252
4.090;-1.956258;-0.855233
4.100;-1.957013;-0.856405
4.110;-1.957497;-0.858638
4.120;-1.957999;-0.861619
4.130;-1.958917;-0.864946
4.140;-1.960647;-0.868225
4.150;-1.963489;-0.871153
4.160;-1.967573;-0.873598
4.170;-1.972835;-0.875648
4.180;-1.979035;-0.877598
4.190;-1.985788;-0.879869
4.200;-1.992639;-0.882889
4.210;-1.999163;-0.886994
4.220;-2.005088;-0.892338
4.230;-2.010388;-0.898862
4.240;-2.015280;-0.906281
4.250;-2.020096;-0.914158
4.260;-2.025044;-0.922031
4.270;-2.029985;-0.929554
4.280;-2.034345;-0.936576
4.290;-2.037226;-0.943133
4.300;-2.037697;-0.949375
4.310;-2.035144;-0.955513
4.320;-2.029551;-0.961783
4.330;-2.021592;-0.968447
4.340;-2.012476;-0.975753
4.350;-2.003577;-0.983874
4.360;-1.995982;-0.992804
4.370;-1.990134;-1.002282
4.380;-1.985726;-1.011799
4.390;-1.981884;-1.020693
4.400;-1.977558;-1.028304
4.410;-1.971946;-1.034090
4.420;-1.964793;-1.037682
4.430;-1.956463;-1.038891
4.440;-1.947790;-1.037721
4.450;-1.939801;-1.034418
4.460;-1.933410;-1.029527
4.470;-1.929198;-1.023886
4.480;-1.927279;-1.018481
4.490;-1.927291;-1.014175
4.500;-1.928466;-1.011431
4.510;-1.929775;-1.010190
4.520;-1.930125;-1.009977
4.530;-1.928573;-1.010177
4.540;-1.924530;-1.010326
4.550;-1.917904;-1.010270
4.560;-1.909148;-1.010139
4.570;-1.899201;-1.010191
4.580;-1.889284;-1.010626
4.590;-1.880606;-1.011479
4.600;-1.874063;-1.012650
4.610;-1.870042;-1.014018
4.620;-1.868408;-1.015573
4.630;-1.868635;-1.017466
4.640;-1.870003;-1.019960
4.650;-1.871777;-1.023334
4.660;-1.873322;-1.027806
4.670;-1.874159;-1.033462
4.680;-1.873977;-1.040212
4.690;-1.872597;-1.047768
4.700;-1.869931;-1.055678
4.710;-1.865948;-1.063415
4.720;-1.860676;-1.070473
4.730;-1.854217;-1.076463
4.740;-1.846799;-1.081189
4.750;-1.838826;-1.084700
4.760;-1.830904;-1.087300
4.770;-1.823802;-1.089471
4.780;-1.818313;-1.091715
4.790;-1.815055;-1.094356
4.800;-1.814278;-1.097405
4.810;-1.815746;-1.100534
4.820;-1.818783;-1.103191
4.830;-1.822469;-1.104794
4.840;-1.825918;-1.104951
4.850;-1.828541;-1.103636
4.860;-1.830173;-1.101234
4.870;-1.831034;-1.098436
4.880;-1.831549;-1.096000
4.890;-1.832125;-1.094499
4.900;-1.832978;-1.094158
4.910;-1.834066;-1.094844
4.920;-1.835126;-1.096180
4.930;-1.835765;-1.097728
4.940;-1.835569;-1.099136
4.950;-1.834221;-1.100196
4.960;-1.831610;-1.100829
4.970;-1.827891;-1.101034
4.980;-1.823441;-1.100867
4.990;-1.818727;-1.100445
5.000;-1.814131;-1.099933
5.010;-1.809836;-1.099499
5.020;-1.805800;-1.099234
5.030;-1.801799;-1.099074
5.040;-1.797501;-1.098750
5.050;-1.792543;-1.097824
5.060;-1.786626;-1.095845
5.070;-1.779596;-1.092573
5.080;-1.771481;-1.088194
5.090;-1.762459;-1.083380
5.100;-1.752768;-1.079143
5.110;-1.742616;-1.076529
5.120;-1.732138;-1.076249
5.130;-1.721413;-1.078407
5.140;-1.710536;-1.082401
5.150;-1.699658;-1.087052
5.160;-1.688983;-1.090961
5.170;-1.678705;-1.092972
5.180;-1.668935;-1.092593
5.190;-1.659681;-1.090164
5.200;-1.650866;-1.086714
5.210;-1.642387;-1.083559
5.220;-1.634153;-1.081824
5.230;-1.626088;-1.082061
5.240;-1.618130;-1.084122
5.250;-1.610198;-1.087310
5.260;-1.602176;-1.090730
5.270;-1.593920;-1.093662
5.280;-1.585329;-1.095799
5.290;-1.576461;-1.097287
5.300;-1.567638;-1.098604
5.310;-1.559435;-1.100345
5.320;-1.552522;-1.102977
5.330;-1.547397;-1.106635
5.340;-1.544118;-1.111054
5.350;-1.542209;-1.115651
5.360;-1.540776;-1.119735
5.370;-1.538826;-1.122712
5.380;-1.535609;-1.124247
5.390;-1.530840;-1.124345
5.400;-1.524715;-1.123360
5.410;-1.517766;-1.121927
5.420;-1.510655;-1.120799
5.430;-1.503999;-1.120658
5.440;-1.498255;-1.121941
5.450;-1.493684;-1.124751
5.460;-1.490369;-1.128882
5.470;-1.488300;-1.133922
5.480;-1.487458;-1.139376
5.490;-1.487846;-1.144771
5.500;-1.489472;-1.149694
5.510;-1.492291;-1.153782
5.520;-1.496167;-1.156720
5.530;-1.500887;-1.158273
5.540;-1.506210;-1.158368
5.550;-1.511925;-1.157153
5.560;-1.517897;-1.155019
5.570;-1.524057;-1.152531
5.580;-1.530366;-1.150291
5.590;-1.536732;-1.148756
5.600;-1.542944;-1.148057
5.610;-1.548614;-1.147954
5.620;-1.553203;-1.147953
5.630;-1.556117;-1.147580
5.640;-1.556891;-1.146644
5.650;-1.555401;-1.145348
5.660;-1.551992;-1.144186
5.670;-1.547452;-1.143690
5.680;-1.542797;-1.144176
5.690;-1.538947;-1.145605
5.700;-1.536423;-1.147605
5.710;-1.535209;-1.149607
5.720;-1.534808;-1.151056
5.730;-1.534460;-1.151609
5.740;-1.533405;-1.151251
5.750;-1.531122;-1.150268
5.760;-1.527441;-1.149097
5.770;-1.522531;-1.148145
5.780;-1.516774;-1.147678
5.790;-1.510578;-1.147802
5.800;-1.504233;-1.148522
5.810;-1.497853;-1.149791
5.820;-1.491457;-1.151554
5.830;-1.485134;-1.153756
5.840;-1.479213;-1.156329
5.850;-1.474315;-1.159156
5.860;-1.471198;-1.162037
5.870;-1.470448;-1.164692
5.880;-1.472160;-1.166821
5.890;-1.475763;-1.168169
5.900;-1.480098;-1.168580
5.910;-1.483694;-1.168019
5.920;-1.485168;-1.166569
5.930;-1.483617;-1.164449
5.940;-1.478905;-1.162030
5.950;-1.471768;-1.159800
5.960;-1.463675;-1.158276
5.970;-1.456448;-1.157887
5.980;-1.451731;-1.158899
5.990;-1.450479;-1.161383
6.000;-1.452677;-1.165218
6.010;-1.457391;-1.170089
6.020;-1.463134;-1.175503
6.030;-1.468352;-1.180844
6.040;-1.471842;-1.185483
6.050;-1.472973;-1.188921
6.060;-1.471714;-1.190938
6.070;-1.468534;-1.191659
6.080;-1.464241;-1.191502
6.090;-1.459769;-1.191018
6.100;-1.455952;-1.190684
6.110;-1.453305;-1.190734
6.120;-1.451914;-1.191092
6.130;-1.451476;-1.191435
6.140;-1.451469;-1.191374
6.150;-1.451379;-1.190665
6.160;-1.450874;-1.189336
6.170;-1.449874;-1.187665
6.180;-1.448533;-1.186063
6.190;-1.447153;-1.184919
6.200;-1.446095;-1.184484
6.210;-1.445724;-1.184809
6.220;-1.446370;-1.185740
6.230;-1.448286;-1.186961
6.240;-1.451581;-1.188105
6.250;-1.456173;-1.188872
6.260;-1.461771;-1.189149
6.270;-1.467904;-1.189042
6.280;-1.473995;-1.188810
6.290;-1.479483;-1.188736
6.300;-1.483960;-1.189009
6.310;-1.487271;-1.189670
6.320;-1.489499;-1.190636
6.330;-1.490866;-1.191744
6.340;-1.491603;-1.192814
6.350;-1.491880;-1.193717
6.360;-1.491806;-1.194457
6.370;-1.491476;-1.195220
6.380;-1.491007;-1.196332
6.390;-1.490536;-1.198102
6.400;-1.490176;-1.200612
6.410;-1.489961;-1.203569
6.420;-1.489816;-1.206349
6.430;-1.489544;-1.208246
6.440;-1.488846;-1.208795
6.450;-1.487347;-1.207984
6.460;-1.484644;-1.206231
6.470;-1.480403;-1.204173
6.480;-1.474467;-1.202399
6.490;-1.466961;-1.201249
6.500;-1.458324;-1.200754
6.510;-1.449230;-1.200703
6.520;-1.440422;-1.200799
6.530;-1.432512;-1.200829
6.540;-1.425821;-1.200749
6.550;-1.420332;-1.200655
6.560;-1.415751;-1.200683
6.570;-1.411634;-1.200904
6.580;-1.407525;-1.201289
6.590;-1.403062;-1.201734
6.600;-1.398016;-1.202152
6.610;-1.392283;-1.202562
6.620;-1.385868;-1.203119
6.630;-1.378876;-1.204045
6.640;-1.371558;-1.205488
6.650;-1.364349;-1.207403
6.660;-1.357869;-1.209514
6.670;-1.352818;-1.211404
6.680;-1.349801;-1.212693
6.690;-1.349149;-1.213190
6.700;-1.350818;-1.212951
6.710;-1.354399;-1.212186
6.720;-1.359226;-1.211114
6.730;-1.364546;-1.209867
6.740;-1.369693;-1.208485
6.750;-1.374241;-1.206975
6.760;-1.378089;-1.205356
6.770;-1.381441;-1.203681
6.780;-1.384685;-1.202041
6.790;-1.388228;-1.200551
6.800;-1.392370;-1.199322
6.810;-1.397254;-1.198426
6.820;-1.402895;-1.197885
6.830;-1.409249;-1.197705
6.840;-1.416288;-1.197929
6.850;-1.424085;-1.198668
6.860;-1.432857;-1.200065
6.870;-1.442948;-1.202210
6.880;-1.454726;-1.205016
6.890;-1.468429;-1.208150
6.900;-1.484044;-1.211087
6.910;-1.501253;-1.213301
6.920;-1.519482;-1.214522
6.930;-1.538025;-1.214905
6.940;-1.556203;-1.214994
6.950;-1.573507;-1.215500
6.960;-1.589677;-1.216997
6.970;-1.604706;-1.219670
6.980;-1.618779;-1.223222
6.990;-1.632190;-1.226986
7.000;-1.645277;-1.230179
7.010;-1.658399;-1.232207
7.020;-1.671926;-1.232876
7.030;-1.686231;-1.232449
7.040;-1.701668;-1.231519
7.050;-1.718528;-1.230796
7.060;-1.736995;-1.230906
7.070;-1.757101;-1.232279
7.080;-1.778699;-1.235127
7.090;-1.801445;-1.239487
7.100;-1.824820;-1.245272
7.110;-1.848182;-1.252309
7.120;-1.870864;-1.260346
7.130;-1.892294;-1.269066
7.140;-1.912110;-1.278107
7.150;-1.930228;-1.287125
7.160;-1.946829;-1.295889
7.170;-1.962288;-1.304367
7.180;-1.977069;-1.312734
7.190;-1.991616;-1.321270
7.200;-2.006272;-1.330184
7.210;-2.021223;-1.339448
7.220;-2.036467;-1.348731
7.230;-2.051786;-1.357460
7.240;-2.066734;-1.365002
7.250;-2.080700;-1.370882
7.260;-2.093032;-1.374925
7.270;-2.103207;-1.377262
7.280;-2.110966;-1.378195
7.290;-2.116360;-1.378032
7.300;-2.119718;-1.376992
7.310;-2.121524;-1.375224
7.320;-2.122255;-1.372879
7.330;-2.122193;-1.370171
7.340;-2.121319;-1.367362
7.350;-2.119309;-1.364730
7.360;-2.115671;-1.362503
7.370;-2.109957;-1.360821
7.380;-2.101937;-1.359689
7.390;-2.091653;-1.358953
7.400;-2.079363;-1.358314
7.410;-2.065425;-1.357397
7.420;-2.050212;-1.355864
7.430;-2.034096;-1.353526
7.440;-2.017469;-1.350374
7.450;-2.000775;-1.346521
7.460;-1.984494;-1.342113
7.470;-1.969095;-1.337260
7.480;-1.954978;-1.332028
7.490;-1.942424;-1.326458
7.500;-1.931566;-1.320556
7.510;-1.922379;-1.314276
7.520;-1.914676;-1.307527
7.530;-1.908132;-1.300199
7.540;-1.902313;-1.292212
7.550;-1.896745;-1.283529
7.560;-1.890996;-1.274156
7.570;-1.884754;-1.264157
7.580;-1.877883;-1.253664
7.590;-1.870432;-1.242865
7.600;-1.862594;-1.231947
7.610;-1.854645;-1.221039
7.620;-1.846913;-1.210216
7.630;-1.839788;-1.199560
7.640;-1.833759;-1.189226
7.650;-1.829430;-1.179431
7.660;-1.827495;-1.170362
7.670;-1.828649;-1.162060
7.680;-1.833447;-1.154385
