Time[s];COPx[cm];COPy[cm]
0.010;0.842206;-0.769329
0.020;0.834289;-0.842394
0.030;0.825559;-0.913562
0.040;0.815522;-0.981143
0.050;0.804131;-1.044488
0.060;0.791798;-1.103983
0.070;0.779284;-1.160610
0.080;0.767532;-1.215284
0.090;0.757520;-1.268288
0.100;0.750152;-1.319078
0.110;0.746200;-1.366492
0.120;0.746240;-1.409200
0.130;0.750555;-1.446161
0.140;0.759048;-1.476894
0.150;0.771228;-1.501572
0.160;0.786346;-1.520961
0.170;0.803615;-1.536323
0.180;0.822469;-1.549274
0.190;0.842729;-1.561617
0.200;0.864643;-1.575133
0.210;0.888749;-1.591330
0.220;0.915614;-1.611184
0.230;0.945515;-1.634935
0.240;0.978212;-1.662005
0.250;1.012881;-1.691124
0.260;1.048261;-1.720660
0.270;1.082906;-1.749084
0.280;1.115456;-1.775419
0.290;1.144843;-1.799553
0.300;1.170402;-1.822306
0.310;1.191914;-1.845204
0.320;1.209569;-1.870015
0.330;1.223884;-1.898159
0.340;1.235545;-1.930174
0.350;1.245177;-1.965462
0.360;1.253109;-2.002457
0.370;1.259211;-2.039214
0.380;1.262898;-2.074175
0.390;1.263355;-2.106771
0.400;1.259926;-2.137569
0.410;1.252524;-2.167894
0.420;1.241871;-2.199104
0.430;1.229446;-2.231845
0.440;1.217134;-2.265632
0.450;1.206737;-2.298893
0.460;1.199548;-2.329440
0.470;1.196153;-2.355120
0.480;1.196482;-2.374357
0.490;1.200065;-2.386346
0.500;1.206331;-2.390862
0.510;1.214861;-2.387830
0.520;1.225537;-2.376880
0.530;1.238588;-2.357094
0.540;1.254552;-2.326999
0.550;1.274150;-2.284767
0.560;1.298062;-2.228548
0.570;1.326684;-2.156911
0.580;1.359934;-2.069345
0.590;1.397189;-1.966750
0.600;1.437370;-1.851725
0.610;1.479141;-1.728453
0.620;1.521113;-1.602132
0.630;1.562003;-1.478056
0.640;1.600688;-1.360622
0.650;1.636217;-1.252520
0.660;1.667801;-1.154315
0.670;1.694855;-1.064547
0.680;1.717057;-0.980373
0.690;1.734415;-0.898604
0.700;1.747270;-0.816870
0.710;1.756266;-0.734501
0.720;1.762285;-0.652798
0.730;1.766346;-0.574612
0.740;1.769474;-0.503438
0.750;1.772522;-0.442439
0.760;1.776020;-0.393725
0.770;1.780130;-0.358014
0.780;1.784768;-0.334653
0.790;1.789859;-0.321865
0.800;1.795619;-0.317130
0.810;1.802722;-0.317600
0.820;1.812272;-0.320480
0.830;1.825559;-0.323329
0.840;1.843706;-0.324268
0.850;1.867337;-0.322103
0.860;1.896412;-0.316389
0.870;1.930266;-0.307399
0.880;1.967815;-0.295954
0.890;2.007786;-0.283105
0.900;2.048882;-0.269736
0.910;2.089819;-0.256227
0.920;2.129314;-0.242293
0.930;2.166071;-0.227064
0.940;2.198836;-0.209352
0.950;2.226528;-0.187994
0.960;2.248433;-0.162160
0.970;2.264361;-0.131533
0.980;2.274693;-0.096355
0.990;2.280262;-0.057354
1.000;2.282099;-0.015612
1.010;2.281114;0.027586
1.020;2.277828;0.070903
1.030;2.272226;0.113070
1.040;2.263787;0.152977
1.050;2.251681;0.189719
1.060;2.235065;0.222631
1.070;2.213389;0.251342
1.080;2.186597;0.275791
1.090;2.155165;0.296156
1.100;2.119998;0.312631
1.110;2.082245;0.325120
1.120;2.043139;0.332962
1.130;2.003889;0.334870
1.140;1.965631;0.329145
1.150;1.929374;0.314116
1.160;1.895908;0.288653
1.170;1.865683;0.252528
1.180;1.838759;0.206517
1.190;1.814876;0.152260
1.200;1.793660;0.091959
1.210;1.774851;0.028074
1.220;1.758462;-0.036929
1.230;1.744807;-0.100765
1.240;1.734390;-0.161491
1.250;1.727713;-0.217653
1.260;1.725052;-0.268391
1.270;1.726286;-0.313484
1.280;1.730851;-0.353308
1.290;1.737828;-0.388720
1.300;1.746120;-0.420850
1.310;1.754630;-0.450862
1.320;1.762379;-0.479735
1.330;1.768528;-0.508159
1.340;1.772344;-0.536591
1.350;1.773128;-0.565436
1.360;1.770115;-0.595255
1.370;1.762330;-0.626904
1.380;1.748402;-0.661520
1.390;1.726452;-0.700375
1.400;1.694164;-0.744599
1.410;1.649137;-0.794848
1.420;1.589450;-0.850963
1.430;1.514249;-0.911741
1.440;1.424084;-0.974916
1.450;1.320857;-1.037468
1.460;1.207403;-1.096242
1.470;1.086912;-1.148681
1.480;0.962434;-1.193376
1.490;0.836627;-1.230224
1.500;0.711733;-1.260131
1.510;0.589695;-1.284443
1.520;0.472297;-1.304393
1.530;0.361242;-1.320801
1.540;0.258164;-1.334141
1.550;0.164569;-1.344874
1.560;0.081722;-1.353826
1.570;0.010482;-1.362393
1.580;-0.048868;-1.372411
1.590;-0.096736;-1.385694
1.600;-0.134214;-1.403438
1.610;-0.162927;-1.425741
1.620;-0.184773;-1.451495
1.630;-0.201654;-1.478688
1.640;-0.215265;-1.504978
1.650;-0.226990;-1.528268
1.660;-0.237894;-1.547074
1.670;-0.248765;-1.560632
1.680;-0.260158;-1.568768
1.690;-0.272407;-1.571684
1.700;-0.285624;-1.569763
1.710;-0.299736;-1.563441
1.720;-0.314601;-1.553146
1.730;-0.330190;-1.539270
1.740;-0.346750;-1.522149
1.750;-0.364860;-1.502041
1.760;-0.385307;-1.479151
1.770;-0.408854;-1.453706
1.780;-0.435939;-1.426081
1.790;-0.466452;-1.396908
1.800;-0.499618;-1.367098
1.810;-0.534066;-1.337759
1.820;-0.568055;-1.310053
1.830;-0.599768;-1.285064
1.840;-0.627586;-1.263715
1.850;-0.650224;-1.246712
1.860;-0.666741;-1.234479
1.870;-0.676492;-1.227068
1.880;-0.679072;-1.224103
1.890;-0.674324;-1.224813
1.900;-0.662389;-1.228180
1.910;-0.643795;-1.233162
1.920;-0.619530;-1.238881
1.930;-0.591036;-1.244733
1.940;-0.560111;-1.250374
1.950;-0.528735;-1.255619
1.960;-0.498862;-1.260287
1.970;-0.472243;-1.264070
1.980;-0.450285;-1.266510
1.990;-0.433958;-1.267072
2.000;-0.423716;-1.265269
2.010;-0.419439;-1.260752
2.020;-0.420390;-1.253331
2.030;-0.425225;-1.242919
2.040;-0.432122;-1.229439
2.050;-0.439039;-1.212762
2.060;-0.444027;-1.192714
2.070;-0.445469;-1.169172
2.080;-0.442170;-1.142182
2.090;-0.433307;-1.112044
2.100;-0.418337;-1.079284
2.110;-0.396898;-1.044538
2.120;-0.368750;-1.008398
2.130;-0.333734;-0.971328
2.140;-0.291769;-0.933698
2.150;-0.242902;-0.895946
2.160;-0.187434;-0.858761
2.170;-0.126058;-0.823160
2.180;-0.059941;-0.790390
2.190;0.009318;-0.761694
2.200;0.079847;-0.738057
2.210;0.149693;-0.720053
2.220;0.216988;-0.707839
2.230;0.280025;-0.701276
2.240;0.337247;-0.700073
2.250;0.387178;-0.703828
2.260;0.428426;-0.711958
2.270;0.459796;-0.723613
2.280;0.480523;-0.737714
2.290;0.490492;-0.753150
2.300;0.490340;-0.769045
2.310;0.481361;-0.784932
2.320;0.465286;-0.800742
2.330;0.444051;-0.816620
2.340;0.419642;-0.832684
2.350;0.394042;-0.848835
2.360;0.369230;-0.864740
2.370;0.347146;-0.879976
2.380;0.329578;-0.894267
2.390;0.317990;-0.907674
2.400;0.313366;-0.920638
2.410;0.316179;-0.933854
2.420;0.326482;-0.948044
2.430;0.344099;-0.963718
2.440;0.368836;-0.981011
2.450;0.400618;-0.999681
2.460;0.439550;-1.019253
2.470;0.485860;-1.039268
2.480;0.539767;-1.059504
2.490;0.601289;-1.080041
2.500;0.670065;-1.101153
2.510;0.745261;-1.123107
2.520;0.825631;-1.146033
2.530;0.909704;-1.169963
2.540;0.996012;-1.195026
2.550;1.083231;-1.221668
2.560;1.170191;-1.250741
2.570;1.255786;-1.283359
2.580;1.338907;-1.320543
2.590;1.418500;-1.362783
2.600;1.493733;-1.409691
2.610;1.564127;-1.459920
2.620;1.629588;-1.511431
2.630;1.690299;-1.562016
2.640;1.746557;-1.609870
2.650;1.798611;-1.653989
2.660;1.846535;-1.694283
2.670;1.890143;-1.731422
2.680;1.928988;-1.766484
2.690;1.962484;-1.800566
2.700;1.990142;-1.834445
2.710;2.011842;-1.868395
2.720;2.028022;-1.902179
2.730;2.039682;-1.935178
2.740;2.048209;-1.966591
2.750;2.055086;-1.995592
2.760;2.061549;-2.021411
2.770;2.068313;-2.043369
2.780;2.075435;-2.060915
2.790;2.082381;-2.073678
2.800;2.088285;-2.081494
2.810;2.092267;-2.084389
2.820;2.093722;-2.082501
2.830;2.092466;-2.076023
2.840;2.088748;-2.065211
2.850;2.083163;-2.050426
2.860;2.076522;-2.032169
2.870;2.069729;-2.011038
2.880;2.063654;-1.987644
2.890;2.059052;-1.962494
2.900;2.056517;-1.935907
2.910;2.056532;-1.907972
2.920;2.059544;-1.878584
2.930;2.065983;-1.847599
2.940;2.076193;-1.815048
2.950;2.090347;-1.781335
2.960;2.108433;-1.747301
2.970;2.130363;-1.714104
2.980;2.156129;-1.682898
2.990;2.185916;-1.654444
3.000;2.220115;-1.628853
3.010;2.259241;-1.605608
3.020;2.303794;-1.583900
3.030;2.354060;-1.563066
3.040;2.409893;-1.542868
3.050;2.470534;-1.523457
3.060;2.534543;-1.505071
3.070;2.599917;-1.487681
3.080;2.664359;-1.470818
3.090;2.725612;-1.453673
3.100;2.781732;-1.435412
3.110;2.831229;-1.415534
3.120;2.873068;-1.394096
3.130;2.906597;-1.371700
3.140;2.931449;-1.349240
3.150;2.947444;-1.327470
3.160;2.954485;-1.306519
3.170;2.952437;-1.285546
3.180;2.940978;-1.262684
3.190;2.919522;-1.235398
3.200;2.887322;-1.201139
3.210;2.843830;-1.158106
3.220;2.789268;-1.105814
3.230;2.725179;-1.045294
3.240;2.654678;-0.978881
3.250;2.582202;-0.909680
3.260;2.512745;-0.840881
3.270;2.450850;-0.775163
3.280;2.399715;-0.714407
3.290;2.360772;-0.659761
3.300;2.333852;-0.611915
3.310;2.317816;-0.571343
3.320;2.311362;-0.538379
3.330;2.313659;-0.513119
3.340;2.324598;-0.495257
3.350;2.344627;-0.483963
3.360;2.374285;-0.477863
3.370;2.413673;-0.475107
3.380;2.462028;-0.473490
3.390;2.517548;-0.470600
3.400;2.577513;-0.464046
3.410;2.638670;-0.451745
3.420;2.697765;-0.432261
3.430;2.752014;-0.405093
3.440;2.799369;-0.370790
3.450;2.838482;-0.330843
3.460;2.868443;-0.287367
3.470;2.888474;-0.242694
3.480;2.897764;-0.198976
3.490;2.895526;-0.157894
3.500;2.881233;-0.120507
3.510;2.854901;-0.087225
3.520;2.817305;-0.057859
3.530;2.770083;-0.031720
3.540;2.715718;-0.007742
3.550;2.657396;0.015351
3.560;2.598719;0.038842
3.570;2.543284;0.063831
3.580;2.494197;0.091105
3.590;2.453669;0.121110
3.600;2.422819;0.154006
3.610;2.401746;0.189781
3.620;2.389828;0.228380
3.630;2.386102;0.269831
3.640;2.389550;0.314305
3.650;2.399206;0.362031
3.660;2.414100;0.413077
3.670;2.433161;0.467052
3.680;2.455173;0.522900
3.690;2.478834;0.578904
3.700;2.502849;0.632971
3.710;2.525965;0.683104
3.720;2.546913;0.727859
3.730;2.564284;0.766589
3.740;2.576431;0.799369
3.750;2.581482;0.826687
3.760;2.577532;0.849040
3.770;2.563001;0.866632
3.780;2.537044;0.879242
3.790;2.499828;0.886281
3.800;2.452556;0.886961
3.810;2.397213;0.880523
3.820;2.336153;0.866406
3.830;2.271697;0.844326
3.840;2.205898;0.814287
3.850;2.140530;0.776572
3.860;2.077233;0.731774
3.870;2.017655;0.680852
3.880;1.963437;0.625187
3.890;1.916022;0.566589
3.900;1.876383;0.507218
3.910;1.844837;0.449387
3.920;1.821037;0.395282
3.930;1.804152;0.346665
3.940;1.793132;0.304625
3.950;1.786928;0.269461
3.960;1.784590;0.240691
3.970;1.785237;0.217219
3.980;1.787910;0.197583
3.990;1.791395;0.180238
4.000;1.794058;0.163762
4.010;1.793801;0.146910
4.020;1.788202;0.128514
4.030;1.774831;0.107332
4.040;1.751662;0.081990
4.050;1.717484;0.051131
4.060;1.672184;0.013767
4.070;1.616884;-0.030280
4.080;1.553852;-0.080065
4.090;1.486171;-0.133512
4.100;1.417188;-0.187840
4.110;1.349875;-0.240313
4.120;1.286319;-0.289057
4.130;1.227506;-0.333593
4.140;1.173415;-0.374837
4.150;1.123361;-0.414559
4.160;1.076441;-0.454559
4.170;1.031969;-0.495910
4.180;0.989741;-0.538623
4.190;0.950101;-0.581802
4.200;0.913782;-0.624175
4.210;0.881615;-0.664686
4.220;0.854214;-0.702858
4.230;0.831751;-0.738845
4.240;0.813895;-0.773222
4.250;0.799912;-0.806705
4.260;0.788855;-0.839917
4.270;0.779760;-0.873247
4.280;0.771785;-0.906788
4.290;0.764293;-0.940347
4.300;0.756888;-0.973501
4.310;0.749423;-1.005678
4.320;0.741963;-1.036263
4.330;0.734749;-1.064690
4.340;0.728154;-1.090513
4.350;0.722645;-1.113442
4.360;0.718727;-1.133368
4.370;0.716875;-1.150342
4.380;0.717492;-1.164536
4.390;0.720984;-1.176179
4.400;0.727947;-1.185531
4.410;0.739361;-1.192904
4.420;0.756637;-1.198741
4.430;0.781405;-1.203726
4.440;0.815107;-1.208871
4.450;0.858556;-1.215552
4.460;0.911650;-1.225459
4.470;0.973388;-1.240398
4.480;1.042125;-1.261948
4.490;1.115940;-1.291005
4.500;1.192914;-1.327427
4.510;1.271261;-1.369959
4.520;1.349306;-1.416530
4.530;1.425399;-1.464830
4.540;1.497873;-1.512962
4.550;1.565056;-1.559922
4.560;1.625385;-1.605680
4.570;1.677525;-1.650836
4.580;1.720456;-1.695969
4.590;1.753439;-1.740998
4.600;1.775889;-1.784854
4.610;1.787237;-1.825608
4.620;1.786890;-1.860958
4.630;1.774349;-1.888847
4.640;1.749455;-1.907916
4.650;1.712673;-1.917662
4.660;1.665251;-1.918275
4.670;1.609194;-1.910317
4.680;1.547018;-1.894390
4.690;1.481415;-1.870932
4.700;1.414920;-1.840173
4.710;1.349699;-1.802259
4.720;1.287469;-1.757458
4.730;1.229524;-1.706386
4.740;1.176798;-1.650114
4.750;1.129932;-1.590109
4.760;1.089365;-1.527993
4.770;1.055410;-1.465209
4.780;1.028316;-1.402758
4.790;1.008238;-1.341109
4.800;0.995153;-1.280296
4.810;0.988733;-1.220130
4.820;0.988233;-1.160389
4.830;0.992430;-1.100916
4.840;0.999651;-1.041624
4.850;1.007910;-0.982485
4.860;1.015141;-0.923602
4.870;1.019505;-0.865388
4.880;1.019687;-0.808760
4.890;1.015050;-0.755242
4.900;1.005599;-0.706834
4.910;0.991742;-0.665641
4.920;0.973995;-0.633323
4.930;0.952790;-0.610590
4.940;0.928493;-0.596951
4.950;0.901582;-0.590826
4.960;0.872849;-0.590006
4.970;0.843471;-0.592262
4.980;0.814877;-0.595866
4.990;0.788496;-0.599825
5.000;0.765470;-0.603762
5.010;0.746500;-0.607588
5.020;0.731883;-0.611166
5.030;0.721727;-0.614142
5.040;0.716234;-0.615973
5.050;0.715868;-0.616069
5.060;0.721335;-0.613934
5.070;0.733355;-0.609252
5.080;0.752348;-0.601906
5.090;0.778156;-0.591947
5.100;0.809907;-0.579562
5.110;0.846059;-0.565049
5.120;0.884604;-0.548818
5.130;0.923392;-0.531417
5.140;0.960471;-0.513517
5.150;0.994356;-0.495837
5.160;1.024121;-0.479002
5.170;1.049318;-0.463398
5.180;1.069791;-0.449111
5.190;1.085523;-0.435954
5.200;1.096620;-0.423586
5.210;1.103420;-0.411681
5.220;1.106643;-0.400122
5.230;1.107439;-0.389161
5.240;1.107278;-0.379466
5.250;1.107684;-0.371992
5.260;1.109972;-0.367677
5.270;1.115092;-0.367076
5.280;1.123622;-0.370060
5.290;1.135843;-0.375697
5.300;1.151844;-0.382388
5.310;1.171604;-0.388250
5.320;1.195061;-0.391640
5.330;1.222112;-0.391639
5.340;1.252567;-0.388298
5.350;1.286048;-0.382564
5.360;1.321898;-0.375949
5.370;1.359158;-0.370065
5.380;1.396625;-0.366206
5.390;1.432981;-0.365050
5.400;1.466928;-0.366571
5.410;1.497285;-0.370160
5.420;1.523038;-0.374922
5.430;1.543359;-0.380007
5.440;1.557616;-0.384845
5.450;1.565380;-0.389231
5.460;1.566451;-0.393270
5.470;1.560869;-0.397260
5.480;1.548943;-0.401548
5.490;1.531262;-0.406377
5.500;1.508681;-0.411790
5.510;1.482256;-0.417624
5.520;1.453138;-0.423617
5.530;1.422470;-0.429562
5.540;1.391329;-0.435421
5.550;1.360716;-0.441319
5.560;1.331565;-0.447404
5.570;1.304717;-0.453647
5.580;1.280877;-0.459716
5.590;1.260562;-0.464997
5.600;1.244065;-0.468786
5.610;1.231418;-0.470518
5.620;1.222367;-0.469918
5.630;1.216343;-0.467018
5.640;1.212498;-0.462031
5.650;1.209830;-0.455203
5.660;1.207359;-0.446707
5.670;1.204316;-0.436638
5.680;1.200231;-0.425080
5.690;1.194874;-0.412164
5.700;1.188068;-0.398090
5.710;1.179467;-0.383131
5.720;1.168438;-0.367673
5.730;1.154115;-0.352292
5.740;1.135621;-0.337787
5.750;1.112335;-0.325089
5.760;1.084102;-0.315034
5.770;1.051323;-0.308106
5.780;1.014927;-0.304261
5.790;0.976278;-0.302949
5.800;0.937028;-0.303299
5.810;0.898927;-0.304408
5.820;0.863577;-0.305620
5.830;0.832165;-0.306672
5.840;0.805259;-0.307659
5.850;0.782758;-0.308859
5.860;0.764060;-0.310517
5.870;0.748373;-0.312730
5.880;0.735009;-0.315451
5.890;0.723530;-0.318595
5.900;0.713705;-0.322159
5.910;0.705364;-0.326282
5.920;0.698266;-0.331221
5.930;0.692047;-0.337233
5.940;0.686238;-0.344420
5.950;0.680305;-0.352644
5.960;0.673664;-0.361596
5.970;0.665686;-0.370997
5.980;0.655709;-0.380827
5.990;0.643095;-0.391429
6.000;0.627304;-0.403411
6.010;0.607961;-0.417392
6.020;0.584902;-0.433721
6.030;0.558193;-0.452327
6.040;0.528169;-0.472768
6.050;0.495436;-0.494383
6.060;0.460833;-0.516449
6.070;0.425302;-0.538235
6.080;0.389723;-0.558963
6.090;0.354800;-0.577759
6.100;0.321086;-0.593701
6.110;0.289137;-0.606037
6.120;0.259691;-0.614512
6.130;0.233744;-0.619643
6.140;0.212483;-0.622748
6.150;0.197111;-0.625680
6.160;0.188675;-0.630368
6.170;0.187937;-0.638344
6.180;0.195308;-0.650394
6.190;0.210805;-0.666439
6.200;0.234026;-0.685661
6.210;0.264169;-0.706833
6.220;0.300135;-0.728736
6.230;0.340711;-0.750464
6.240;0.384826;-0.771518
6.250;0.431754;-0.791686
6.260;0.481208;-0.810845
6.270;0.533264;-0.828841
6.280;0.588152;-0.845519
6.290;0.646002;-0.860891
6.300;0.706651;-0.875298
6.310;0.769589;-0.889439
6.320;0.834074;-0.904203
6.330;0.899374;-0.920341
6.340;0.965003;-0.938174
6.350;1.030859;-0.957468
6.360;1.097150;-0.977556
6.370;1.164114;-0.997645
6.380;1.231621;-1.017195
6.390;1.298832;-1.036206
6.400;1.364112;-1.055279
6.410;1.425251;-1.075395
6.420;1.479933;-1.097495
6.430;1.526293;-1.122045
6.440;1.563375;-1.148823
6.450;1.591313;-1.177002
6.460;1.611184;-1.205495
6.470;1.624568;-1.233379
6.480;1.632978;-1.260201
6.490;1.637394;-1.286040
6.500;1.638106;-1.311319
6.510;1.634884;-1.336468
6.520;1.627394;-1.361601
6.530;1.615596;-1.386340
6.540;1.599952;-1.409850
6.550;1.581361;-1.431040
6.560;1.560906;-1.448824
6.570;1.539573;-1.462359
6.580;1.518088;-1.471178
6.590;1.496933;-1.475222
6.600;1.476490;-1.474788
6.610;1.457192;-1.470414
6.620;1.439586;-1.462702
6.630;1.424264;-1.452114
6.640;1.411691;-1.438821
6.650;1.402023;-1.422654
6.660;1.395013;-1.403220
6.670;1.390078;-1.380091
6.680;1.386448;-1.353001
6.690;1.383349;-1.321912
6.700;1.380110;-1.286960
6.710;1.376192;-1.248332
6.720;1.371165;-1.206194
6.730;1.364664;-1.160706
6.740;1.356342;-1.112098
6.750;1.345849;-1.060705
6.760;1.332833;-1.006897
6.770;1.316961;-0.950948
6.780;1.297961;-0.892917
6.790;1.275619;-0.832627
6.800;1.249773;-0.769779
6.810;1.220300;-0.704140
6.820;1.187172;-0.635736
6.830;1.150638;-0.565007
6.840;1.111474;-0.492850
6.850;1.071214;-0.420566
6.860;1.032164;-0.349717
6.870;0.997124;-0.281967
6.880;0.968851;-0.218924
6.890;0.949474;-0.162001
6.900;0.940117;-0.112298
6.910;0.940868;-0.070492
6.920;0.951054;-0.036736
6.930;0.969630;-0.010595
6.940;0.995505;0.008951
6.950;1.027714;0.023418
6.960;1.065429;0.034626
6.970;1.107891;0.044471
6.980;1.154290;0.054683
6.990;1.203692;0.066615
7.000;1.255037;0.081109
7.010;1.307214;0.098441
7.020;1.359172;0.118368
7.030;1.409971;0.140277
7.040;1.458768;0.163387
7.050;1.504756;0.186960
7.060;1.547127;0.210444
7.070;1.585089;0.233518
7.080;1.617948;0.256004
7.090;1.645187;0.277720
7.100;1.666544;0.298355
7.110;1.682043;0.317466
7.120;1.692020;0.334567
7.130;1.697103;0.349282
7.140;1.698176;0.361455
7.150;1.696300;0.371210
7.160;1.692623;0.378921
7.170;1.688295;0.385127
7.180;1.684406;0.390398
7.190;1.681975;0.395216
7.200;1.681937;0.399932
7.210;1.685098;0.404797
7.220;1.692043;0.410059
7.230;1.703030;0.416038
7.240;1.717932;0.423125
7.250;1.736287;0.431712
7.260;1.757448;0.442064
7.270;1.780771;0.454217
7.280;1.805757;0.467903
7.290;1.832069;0.482548
7.300;1.859439;0.497287
7.310;1.887514;0.511027
7.320;1.915753;0.522559
7.330;1.943453;0.530735
7.340;1.969865;0.534694
7.350;1.994356;0.534022
7.360;2.016491;0.528767
7.370;2.036015;0.519276
7.380;2.052800;0.505932
7.390;2.066781;0.488913
7.400;2.077921;0.468070
7.410;2.086183;0.442938
7.420;2.091501;0.412851
7.430;2.093762;0.377077
7.440;2.092827;0.334945
7.450;2.088574;0.285980
7.460;2.080954;0.230065
7.470;2.070046;0.167565
7.480;2.056121;0.099353
7.490;2.039701;0.026691
7.500;2.021586;-0.048988
7.510;2.002786;-0.126263
7.520;1.984327;-0.203794
7.530;1.966994;-0.280259
7.540;1.951132;-0.354253
7.550;1.936612;-0.424294
7.560;1.922970;-0.488974
7.570;1.909678;-0.547251
7.580;1.896424;-0.598741
7.590;1.883313;-0.643875
7.600;1.870900;-0.683840
7.610;1.860096;-0.720293
7.620;1.851980;-0.754918
7.630;1.847603;-0.788991
7.640;1.847827;-0.823084
7.650;1.853173;-0.856984
7.660;1.863709;-0.889843
7.670;1.878970;-0.920450
7.680;1.897964;-0.947537
7.690;1.919266;-0.970070
7.700;1.941196;-0.987481
7.710;1.962027;-0.999824
7.720;1.980166;-1.007805
7.730;1.994268;-1.012659
7.740;2.003310;-1.015896
7.750;2.006639;-1.019003
7.760;2.004020;-1.023184
7.770;1.995653;-1.029224
7.780;1.982088;-1.037481
7.790;1.963987;-1.047976
7.800;1.941802;-1.060534
7.810;1.915521;-1.074919
7.820;1.884640;-1.090945
7.830;1.848388;-1.108533
7.840;1.806096;-1.127705
7.850;1.757559;-1.148500
7.860;1.703277;-1.170872
7.870;1.644502;-1.194649
7.880;1.583053;-1.219595
7.890;1.520944;-1.245569
7.900;1.459957;-1.272642
7.910;1.401326;-1.301103
7.920;1.345631;-1.331319
7.930;1.292941;-1.363578
7.940;1.243105;-1.398040
7.950;1.196094;-1.434831
7.960;1.152241;-1.474200
7.970;1.112307;-1.516572
7.980;1.077315;-1.562389
7.990;1.048236;-1.611761
8.000;1.025665;-1.664083
8.010;1.009635;-1.717827
