Time[s];COPx[cm];COPy[cm]
0.010;-2.236253;0.445607
0.020;-2.239428;0.461894
0.030;-2.238850;0.478044
0.040;-2.231264;0.493817
0.050;-2.214311;0.508760
0.060;-2.186845;0.522279
0.070;-2.148996;0.533797
0.080;-2.101976;0.542911
0.090;-2.047662;0.549475
0.100;-1.988154;0.553563
0.110;-1.925442;0.555337
0.120;-1.861245;0.554880
0.130;-1.796957;0.552114
0.140;-1.733620;0.546847
0.150;-1.671866;0.538969
0.160;-1.611860;0.528711
0.170;-1.553312;0.516829
0.180;-1.495612;0.504621
0.190;-1.438106;0.493729
0.200;-1.380439;0.485811
0.210;-1.322866;0.482208
0.220;-1.266391;0.483703
0.230;-1.212696;0.490454
0.240;-1.163825;0.502083
0.250;-1.121736;0.517875
0.260;-1.087811;0.536983
0.270;-1.062480;0.558575
0.280;-1.045081;0.581873
0.290;-1.034003;0.606147
0.300;-1.027112;0.630713
0.310;-1.022337;0.654978
0.320;-1.018243;0.678511
0.330;-1.014369;0.701105
0.340;-1.011223;0.722788
0.350;-1.009945;0.743775
0.360;-1.011770;0.764367
0.370;-1.017525;0.784866
0.380;-1.027321;0.805531
0.390;-1.040540;0.826579
0.400;-1.056114;0.848208
0.410;-1.072942;0.870604
0.420;-1.090293;0.893910
0.430;-1.108017;0.918187
0.440;-1.126471;0.943385
0.450;-1.146206;0.969357
0.460;-1.167558;0.995896
0.470;-1.190343;1.022807
0.480;-1.213806;1.049982
0.490;-1.236838;1.077456
0.500;-1.258376;1.105391
0.510;-1.277809;1.134001
0.520;-1.295209;1.163420
0.530;-1.311294;1.193559
0.540;-1.327134;1.223984
0.550;-1.343713;1.253847
0.560;-1.361500;1.281954
0.570;-1.380207;1.306957
0.580;-1.398788;1.327670
0.590;-1.415688;1.343380
0.600;-1.429248;1.354033
0.610;-1.438119;1.360241
0.620;-1.441572;1.363091
0.630;-1.439632;1.363878
0.640;-1.433046;1.363832
0.650;-1.423150;1.363928
0.660;-1.411678;1.364788
0.670;-1.400547;1.366670
0.680;-1.391602;1.369507
0.690;-1.386360;1.372979
0.700;-1.385810;1.376603
0.710;-1.390328;1.379815
0.720;-1.399711;1.382048
0.730;-1.413316;1.382806
0.740;-1.430263;1.381734
0.750;-1.449678;1.378658
0.760;-1.470925;1.373583
0.770;-1.493756;1.366650
0.780;-1.518299;1.358079
0.790;-1.544894;1.348108
0.800;-1.573831;1.336958
0.810;-1.605116;1.324804
0.820;-1.638365;1.311778
0.830;-1.672869;1.297997
0.840;-1.707801;1.283617
0.850;-1.742498;1.268880
0.860;-1.776696;1.254129
0.870;-1.810664;1.239768
0.880;-1.845148;1.226177
0.890;-1.881154;1.213612
0.900;-1.919607;1.202103
0.910;-1.960972;1.191421
0.920;-2.004929;1.181122
0.930;-2.050195;1.170674
0.940;-2.094557;1.159603
0.950;-2.135155;1.147593
0.960;-2.169006;1.134516
0.970;-2.193640;1.120378
0.980;-2.207681;1.105236
0.990;-2.211166;1.089161
1.000;-2.205521;1.072247
1.010;-2.193210;1.054696
1.020;-2.177210;1.036879
1.030;-2.160465;1.019317
1.040;-2.145442;1.002541
1.050;-2.133817;0.986862
1.060;-2.126303;0.972156
1.070;-2.122624;0.957796
1.080;-2.121654;0.942805
1.090;-2.121696;0.926169
1.100;-2.120861;0.907149
1.110;-2.117442;0.885469
1.120;-2.110204;0.861327
1.130;-2.098521;0.835278
1.140;-2.082360;0.808060
1.150;-2.062118;0.780434
1.160;-2.038402;0.753053
1.170;-2.011847;0.726398
1.180;-1.983055;0.700778
1.190;-1.952684;0.676354
1.200;-1.921583;0.653187
1.210;-1.890871;0.631290
1.220;-1.861863;0.610660
1.230;-1.835840;0.591278
1.240;-1.813770;0.573070
1.250;-1.796091;0.555882
1.260;-1.782631;0.539500
1.270;-1.772662;0.523756
1.280;-1.765017;0.508639
1.290;-1.758230;0.494374
1.300;-1.750687;0.481422
1.310;-1.740838;0.470432
1.320;-1.727470;0.462142
1.330;-1.710012;0.457212
1.340;-1.688740;0.456020
1.350;-1.664808;0.458488
1.360;-1.640031;0.464031
1.370;-1.616472;0.471689
1.380;-1.595924;0.480372
1.390;-1.579467;0.489110
1.400;-1.567259;0.497239
1.410;-1.558627;0.504476
1.420;-1.552392;0.510922
1.430;-1.547293;0.517007
1.440;-1.542317;0.523408
1.450;-1.536858;0.530950
1.460;-1.530694;0.540508
1.470;-1.523839;0.552895
1.480;-1.516392;0.568739
1.490;-1.508459;0.588356
1.500;-1.500175;0.611682
1.510;-1.491781;0.638312
1.520;-1.483691;0.667624
1.530;-1.476508;0.698930
1.540;-1.470993;0.731592
1.550;-1.467986;0.765080
1.560;-1.468296;0.799006
1.570;-1.472577;0.833157
1.580;-1.481201;0.867486
1.590;-1.494174;0.902074
1.600;-1.511105;0.937003
1.610;-1.531245;0.972225
1.620;-1.553609;1.007454
1.630;-1.577147;1.042156
1.640;-1.600949;1.075643
1.650;-1.624389;1.107251
1.660;-1.647150;1.136518
1.670;-1.669113;1.163303
1.680;-1.690172;1.187779
1.690;-1.710071;1.210347
1.700;-1.728365;1.231511
1.710;-1.744525;1.251795
1.720;-1.758135;1.271684
1.730;-1.769087;1.291575
1.740;-1.777679;1.311724
1.750;-1.784564;1.332177
1.760;-1.790566;1.352721
1.770;-1.796441;1.372896
1.780;-1.802705;1.392079
1.790;-1.809594;1.409611
1.800;-1.817150;1.424927
1.810;-1.825362;1.437633
1.820;-1.834291;1.447562
1.830;-1.844131;1.454793
1.840;-1.855213;1.459652
1.850;-1.867976;1.462673
1.860;-1.882878;1.464527
1.870;-1.900248;1.465906
1.880;-1.920076;1.467386
1.890;-1.941815;1.469310
1.900;-1.964280;1.471718
1.910;-1.985721;1.474356
1.920;-2.004119;1.476736
1.930;-2.017647;1.478202
1.940;-2.025159;1.477981
1.950;-2.026513;1.475234
1.960;-2.022586;1.469145
1.970;-2.014957;1.459075
1.980;-2.005400;1.444724
1.990;-1.995416;1.426247
2.000;-1.985979;1.404268
2.010;-1.977538;1.379768
2.020;-1.970203;1.353887
2.030;-1.963974;1.327683
2.040;-1.958917;1.301914
2.050;-1.955196;1.276901
2.060;-1.952995;1.252519
2.070;-1.952345;1.228300
2.080;-1.952996;1.203642
2.090;-1.954396;1.178042
2.100;-1.955840;1.151278
2.110;-1.956728;1.123448
2.120;-1.956846;1.094899
2.130;-1.956572;1.066073
2.140;-1.956919;1.037382
2.150;-1.959402;1.009137
2.160;-1.965740;0.981497
2.170;-1.977437;0.954410
2.180;-1.995315;0.927551
2.190;-2.019078;0.900331
2.200;-2.047048;0.872044
2.210;-2.076217;0.842106
2.220;-2.102708;0.810303
2.230;-2.122609;0.776907
2.240;-2.132960;0.742649
2.250;-2.132548;0.708541
2.260;-2.122206;0.675643
2.270;-2.104514;0.644862
2.280;-2.083037;0.616839
2.290;-2.061383;0.591927
2.300;-2.042397;0.570208
2.310;-2.027702;0.551544
2.320;-2.017663;0.535632
2.330;-2.011659;0.522104
2.340;-2.008512;0.510651
2.350;-2.006876;0.501138
2.360;-2.005476;0.493678
2.370;-2.003157;0.488596
2.380;-1.998780;0.486294
2.390;-1.991105;0.487037
2.400;-1.978765;0.490760
2.410;-1.960435;0.496997
2.420;-1.935122;0.504961
2.430;-1.902478;0.513726
2.440;-1.863006;0.522411
2.450;-1.818092;0.530317
2.460;-1.769859;0.537014
2.470;-1.720853;0.542370
2.480;-1.673653;0.546530
2.490;-1.630467;0.549850
2.500;-1.592848;0.552789
2.510;-1.561596;0.555777
2.520;-1.536883;0.559124
2.530;-1.518481;0.563004
2.540;-1.505969;0.567500
2.550;-1.498813;0.572663
2.560;-1.496333;0.578545
2.570;-1.497631;0.585165
2.580;-1.501581;0.592437
2.590;-1.506945;0.600109
2.600;-1.512535;0.607745
2.610;-1.517386;0.614794
2.620;-1.520822;0.620725
2.630;-1.522441;0.625172
2.640;-1.522010;0.628060
2.650;-1.519356;0.629655
2.660;-1.514276;0.630536
2.670;-1.506503;0.631498
2.680;-1.495742;0.633387
2.690;-1.481787;0.636897
2.700;-1.464679;0.642393
2.710;-1.444845;0.649824
2.720;-1.423169;0.658740
2.730;-1.400937;0.668422
2.740;-1.379671;0.678064
2.750;-1.360858;0.686969
2.760;-1.345628;0.694703
2.770;-1.334475;0.701153
2.780;-1.327103;0.706477
2.790;-1.322458;0.710972
2.800;-1.318968;0.714950
2.810;-1.314920;0.718697
2.820;-1.308853;0.722519
2.830;-1.299877;0.726799
2.840;-1.287846;0.731975
2.850;-1.273390;0.738423
2.860;-1.257826;0.746308
2.870;-1.242939;0.755454
2.880;-1.230677;0.765297
2.890;-1.222793;0.774935
2.900;-1.220528;0.783269
2.910;-1.224410;0.789208
2.920;-1.234215;0.791897
2.930;-1.249084;0.790909
2.940;-1.267758;0.786358
2.950;-1.288836;0.778861
2.960;-1.311019;0.769354
2.970;-1.333253;0.758805
2.980;-1.354773;0.747958
2.990;-1.375072;0.737174
3.000;-1.393876;0.726435
3.010;-1.411168;0.715452
3.020;-1.427284;0.703858
3.030;-1.443007;0.691378
3.040;-1.459575;0.677908
3.050;-1.478559;0.663486
3.060;-1.501626;0.648168
3.070;-1.530205;0.631917
3.080;-1.565135;0.614601
3.090;-1.606323;0.596134
3.100;-1.652522;0.576700
3.110;-1.701317;0.556911
3.120;-1.749411;0.537795
3.130;-1.793230;0.520612
3.140;-1.829700;0.506557
3.150;-1.856977;0.496458
3.160;-1.874857;0.490559
3.170;-1.884740;0.488424
3.180;-1.889148;0.489028
3.190;-1.890988;0.491002
3.200;-1.892822;0.492987
3.210;-1.896384;0.493975
3.220;-1.902461;0.493522
3.230;-1.911082;0.491757
3.240;-1.921845;0.489218
3.250;-1.934201;0.486602
3.260;-1.947613;0.484519
3.270;-1.961579;0.483322
3.280;-1.975560;0.483009
3.290;-1.988887;0.483226
3.300;-2.000743;0.483371
3.310;-2.010231;0.482757
3.320;-2.016524;0.480796
3.330;-2.019035;0.477108
3.340;-2.017512;0.471547
3.350;-2.012047;0.464145
3.360;-2.002985;0.455039
3.370;-1.990824;0.444404
3.380;-1.976172;0.432417
3.390;-1.959789;0.419259
3.400;-1.942665;0.405119
3.410;-1.926042;0.390207
3.420;-1.911282;0.374747
3.430;-1.899593;0.358950
3.440;-1.891710;0.342998
3.450;-1.887644;0.327026
3.460;-1.886613;0.311113
3.470;-1.887166;0.295271
3.480;-1.887465;0.279464
3.490;-1.885646;0.263609
3.500;-1.880154;0.247541
3.510;-1.869978;0.230974
3.520;-1.854757;0.213504
3.530;-1.834759;0.194728
3.540;-1.810743;0.174430
3.550;-1.783710;0.152764
3.560;-1.754586;0.130300
3.570;-1.723958;0.107902
3.580;-1.691976;0.086471
3.590;-1.658483;0.066642
3.600;-1.623285;0.048555
3.610;-1.586418;0.031795
3.620;-1.548264;0.015527
3.630;-1.509502;-0.001195
3.640;-1.470937;-0.019097
3.650;-1.433310;-0.038449
3.660;-1.397143;-0.059025
3.670;-1.362656;-0.080246
3.680;-1.329741;-0.101407
3.690;-1.297958;-0.121835
3.700;-1.266581;-0.140937
3.710;-1.234690;-0.158131
3.720;-1.201353;-0.172777
3.730;-1.165884;-0.184174
3.740;-1.128138;-0.191692
3.750;-1.088752;-0.194957
3.760;-1.049240;-0.194024
3.770;-1.011879;-0.189412
3.780;-0.979357;-0.181978
3.790;-0.954260;-0.172668
3.800;-0.938493;-0.162231
3.810;-0.932805;-0.150998
3.820;-0.936557;-0.138794
3.830;-0.947832;-0.125017
3.840;-0.963863;-0.108849
3.850;-0.981661;-0.089549
3.860;-0.998679;-0.066702
3.870;-1.013330;-0.040350
3.880;-1.025245;-0.010968
3.890;-1.035227;0.020676
3.900;-1.044944;0.053719
3.910;-1.056471;0.087376
3.920;-1.071807;0.121041
3.930;-1.092446;0.154294
3.940;-1.119092;0.186854
3.950;-1.151510;0.218544
3.960;-1.188547;0.249325
3.970;-1.228301;0.279379
3.980;-1.268436;0.309162
3.990;-1.306595;0.339333
4.000;-1.340866;0.370545
4.010;-1.370147;0.403169
4.020;-1.394318;0.437117
4.030;-1.414150;0.471871
4.040;-1.430965;0.506708
4.050;-1.446147;0.540993
4.060;-1.460691;0.574372
4.070;-1.474929;0.606762
4.080;-1.488559;0.638146
4.090;-1.500896;0.668314
4.100;-1.511252;0.696678
4.110;-1.519274;0.722301
4.120;-1.525143;0.744120
4.130;-1.529587;0.761297
4.140;-1.533713;0.773546
4.150;-1.538720;0.781308
4.160;-1.545575;0.785659
4.170;-1.554752;0.787956
4.180;-1.566131;0.789347
4.190;-1.579062;0.790369
4.200;-1.592591;0.790818
4.210;-1.605772;0.789923
4.220;-1.617959;0.786713
4.230;-1.629004;0.780403
4.240;-1.639280;0.770651
4.250;-1.649524;0.757614
4.260;-1.660590;0.741822
4.270;-1.673195;0.723944
4.280;-1.687788;0.704532
4.290;-1.704555;0.683872
4.300;-1.723551;0.661979
4.310;-1.744858;0.638691
4.320;-1.768678;0.613758
4.330;-1.795304;0.586855
4.340;-1.824975;0.557559
4.350;-1.857691;0.525380
4.360;-1.893045;0.489933
4.370;-1.930135;0.451171
4.380;-1.967594;0.409574
4.390;-2.003765;0.366178
4.400;-2.036972;0.322410
4.410;-2.065805;0.279784
4.420;-2.089317;0.239597
4.430;-2.107088;0.202706
4.440;-2.119150;0.169493
4.450;-2.125828;0.139962
4.460;-2.127554;0.113905
4.470;-2.124702;0.091048
4.480;-2.117487;0.071150
4.490;-2.105976;0.054052
4.500;-2.090209;0.039686
4.510;-2.070417;0.028047
4.520;-2.047220;0.019141
4.530;-2.021717;0.012916
4.540;-1.995407;0.009177
4.550;-1.969946;0.007537
4.560;-1.946786;0.007416
4.570;-1.926796;0.008146
4.580;-1.909961;0.009133
4.590;-1.895256;0.010054
4.600;-1.880779;0.010981
4.610;-1.864132;0.012393
4.620;-1.842991;0.015057
4.630;-1.815703;0.019844
4.640;-1.781758;0.027545
4.650;-1.741995;0.038739
4.660;-1.698470;0.053726
4.670;-1.654026;0.072528
4.680;-1.611681;0.094904
4.690;-1.574009;0.120376
4.700;-1.542670;0.148221
4.710;-1.518205;0.177487
4.720;-1.500077;0.207065
4.730;-1.486923;0.235842
4.740;-1.476930;0.262886
4.750;-1.468245;0.287602
4.760;-1.459345;0.309788
4.770;-1.449287;0.329587
4.780;-1.437816;0.347355
4.790;-1.425313;0.363518
4.800;-1.412595;0.378452
4.810;-1.400642;0.392425
4.820;-1.390320;0.405609
4.830;-1.382179;0.418131
4.840;-1.376403;0.430119
4.850;-1.372884;0.441707
4.860;-1.371375;0.452959
4.870;-1.371640;0.463766
4.880;-1.373538;0.473772
4.890;-1.377025;0.482389
4.900;-1.382118;0.488909
4.910;-1.388835;0.492686
4.920;-1.397156;0.493317
4.930;-1.406950;0.490792
4.940;-1.417893;0.485545
4.950;-1.429391;0.478404
4.960;-1.440566;0.470436
4.970;-1.450386;0.462703
4.980;-1.457921;0.456014
4.990;-1.462685;0.450703
5.000;-1.464913;0.446556
5.010;-1.465585;0.442901
5.020;-1.466144;0.438837
5.030;-1.467946;0.433514
5.040;-1.471714;0.426346
5.050;-1.477260;0.417107
5.060;-1.483597;0.405891
5.070;-1.489402;0.392988
5.080;-1.493584;0.378752
5.090;-1.495730;0.363510
5.100;-1.496246;0.347545
5.110;-1.496175;0.331127
5.120;-1.496780;0.314541
5.130;-1.499041;0.298083
5.140;-1.503241;0.282023
5.150;-1.508774;0.266570
5.160;-1.514253;0.251869
5.170;-1.517879;0.238026
5.180;-1.517938;0.225135
5.190;-1.513260;0.213270
5.200;-1.503513;0.202443
5.210;-1.489249;0.192558
5.220;-1.471733;0.183424
5.230;-1.452608;0.174839
5.240;-1.433522;0.166706
5.250;-1.415865;0.159099
5.260;-1.400656;0.152231
5.270;-1.388580;0.146343
5.280;-1.380066;0.141595
5.290;-1.375369;0.138010
5.300;-1.374619;0.135473
5.310;-1.377847;0.133748
5.320;-1.384967;0.132522
5.330;-1.395734;0.131472
5.340;-1.409693;0.130352
5.350;-1.426182;0.129075
5.360;-1.444411;0.127740
5.370;-1.463589;0.126569
5.380;-1.483030;0.125761
5.390;-1.502184;0.125334
5.400;-1.520580;0.125030
5.410;-1.537719;0.124351
5.420;-1.553016;0.122723
5.430;-1.565838;0.119742
5.440;-1.575639;0.115400
5.450;-1.582121;0.110202
5.460;-1.585332;0.105097
5.470;-1.585669;0.101226
5.480;-1.583782;0.099569
5.490;-1.580404;0.100604
5.500;-1.576171;0.104145
5.510;-1.571483;0.109398
5.520;-1.566470;0.115226
5.530;-1.561066;0.120496
5.540;-1.555123;0.124374
5.550;-1.548525;0.126483
5.560;-1.541216;0.126912
5.570;-1.533153;0.126125
5.580;-1.524186;0.124829
5.590;-1.513972;0.123809
5.600;-1.501985;0.123755
5.610;-1.487670;0.125082
5.620;-1.470707;0.127806
5.630;-1.451262;0.131517
5.640;-1.430122;0.135504
5.650;-1.408634;0.138989
5.660;-1.388437;0.141386
5.670;-1.371067;0.142460
5.680;-1.357573;0.142336
5.690;-1.348292;0.141359
5.700;-1.342857;0.139898
5.710;-1.340395;0.138196
5.720;-1.339842;0.136339
5.730;-1.340218;0.134317
5.740;-1.340813;0.132135
5.750;-1.341249;0.129871
5.760;-1.341453;0.127678
5.770;-1.341601;0.125729
5.780;-1.342081;0.124177
5.790;-1.343457;0.123134
5.800;-1.346401;0.122644
5.810;-1.351561;0.122601
5.820;-1.359378;0.122640
5.830;-1.369946;0.122102
5.840;-1.382973;0.120155
5.850;-1.397884;0.116068
5.860;-1.414021;0.109509
5.870;-1.430848;0.100710
5.880;-1.448071;0.090411
5.890;-1.465615;0.079617
5.900;-1.483498;0.069283
5.910;-1.501671;0.060067
5.920;-1.519905;0.052264
5.930;-1.537759;0.045910
5.940;-1.554591;0.040950
5.950;-1.569625;0.037350
5.960;-1.582067;0.035111
5.970;-1.591270;0.034199
5.980;-1.596888;0.034478
5.990;-1.598959;0.035713
6.000;-1.597864;0.037670
6.010;-1.594222;0.040263
6.020;-1.588745;0.043639
6.030;-1.582128;0.048130
6.040;-1.574956;0.054096
6.050;-1.567622;0.061748
6.060;-1.560281;0.071041
6.070;-1.552865;0.081675
6.080;-1.545194;0.093172
6.090;-1.537132;0.105023
6.100;-1.528738;0.116839
6.110;-1.520333;0.128474
6.120;-1.512449;0.140076
6.130;-1.505683;0.152057
6.140;-1.500524;0.165002
6.150;-1.497228;0.179499
6.160;-1.495801;0.195942
6.170;-1.496062;0.214347
6.180;-1.497740;0.234272
6.190;-1.500522;0.254902
6.200;-1.504065;0.275296
6.210;-1.507975;0.294677
6.220;-1.511801;0.312642
6.230;-1.515074;0.329187
6.240;-1.517395;0.344570
6.250;-1.518544;0.359115
6.260;-1.518594;0.373065
6.270;-1.517942;0.386549
6.280;-1.517240;0.399623
6.290;-1.517193;0.412364
6.300;-1.518319;0.424930
6.310;-1.520738;0.437563
6.320;-1.524125;0.450522
6.330;-1.527830;0.464012
6.340;-1.531141;0.478152
6.350;-1.533547;0.492982
6.360;-1.534915;0.508470
6.370;-1.535519;0.524499
6.380;-1.535935;0.540855
6.390;-1.536869;0.557273
6.400;-1.538973;0.573534
6.410;-1.542665;0.589572
6.420;-1.547989;0.605479
6.430;-1.554520;0.621401
6.440;-1.561384;0.637343
6.450;-1.567400;0.652999
6.460;-1.571335;0.667694
6.470;-1.572204;0.680503
6.480;-1.569517;0.690500
6.490;-1.563397;0.697049
6.500;-1.554553;0.700000
6.510;-1.544100;0.699714
6.520;-1.533300;0.696901
6.530;-1.523283;0.692350
6.540;-1.514822;0.686670
6.550;-1.508180;0.680131
6.560;-1.503063;0.672663
6.570;-1.498643;0.663982
6.580;-1.493660;0.653760
6.590;-1.486578;0.641753
6.600;-1.475767;0.627846
6.610;-1.459714;0.612036
6.620;-1.437235;0.594410
6.630;-1.407672;0.575152
6.640;-1.371034;0.554572
6.650;-1.328050;0.533124
6.660;-1.280098;0.511358
6.670;-1.229053;0.489802
6.680;-1.177068;0.468791
6.690;-1.126334;0.448374
6.700;-1.078832;0.428344
6.710;-1.036105;0.408370
6.720;-0.999099;0.388131
6.730;-0.968099;0.367375
6.740;-0.942766;0.345913
6.750;-0.922242;0.323601
6.760;-0.905305;0.300353
6.770;-0.890574;0.276193
6.780;-0.876739;0.251331
6.790;-0.862791;0.226220
6.800;-0.848158;0.201550
6.810;-0.832719;0.178117
6.820;-0.816715;0.156597
6.830;-0.800645;0.137286
6.840;-0.785214;0.120004
6.850;-0.771342;0.104218
6.860;-0.760173;0.089360
6.870;-0.753019;0.075165
6.880;-0.751173;0.061836
6.890;-0.755606;0.049950
6.900;-0.766620;0.040148
6.910;-0.783610;0.032788
6.920;-0.805023;0.027742
6.930;-0.828593;0.024411
6.940;-0.851782;0.021925
6.950;-0.872330;0.019403
6.960;-0.888750;0.016161
6.970;-0.900637;0.011840
6.980;-0.908698;0.006449
6.990;-0.914503;0.000341
7.000;-0.920043;-0.005899
7.010;-0.927250;-0.011638
7.020;-0.937632;-0.016392
7.030;-0.952108;-0.019959
7.040;-0.971022;-0.022431
7.050;-0.994283;-0.024099
7.060;-1.021515;-0.025330
7.070;-1.052184;-0.026444
7.080;-1.085675;-0.027652
7.090;-1.121349;-0.029054
7.100;-1.158612;-0.030695
7.110;-1.196981;-0.032632
7.120;-1.236134;-0.034975
7.130;-1.275924;-0.037905
7.140;-1.316346;-0.041652
7.150;-1.357476;-0.046457
7.160;-1.399430;-0.052525
7.170;-1.442329;-0.059992
7.180;-1.486285;-0.068920
7.190;-1.531357;-0.079305
7.200;-1.577485;-0.091042
7.210;-1.624408;-0.103858
7.220;-1.671607;-0.117263
7.230;-1.718288;-0.130576
7.240;-1.763450;-0.143022
7.250;-1.806023;-0.153895
7.260;-1.845047;-0.162700
7.270;-1.879825;-0.169244
7.280;-1.909971;-0.173624
7.290;-1.935381;-0.176117
7.300;-1.956138;-0.177017
7.310;-1.972425;-0.176480
7.320;-1.984480;-0.174444
7.330;-1.992614;-0.170632
7.340;-1.997298;-0.164638
7.350;-1.999265;-0.156070
7.360;-1.999551;-0.144685
7.370;-1.999408;-0.130508
7.380;-2.000109;-0.113909
7.390;-2.002655;-0.095647
7.400;-2.007506;-0.076793
7.410;-2.014379;-0.058537
7.420;-2.022200;-0.041876
7.430;-2.029218;-0.027342
7.440;-2.033301;-0.014894
7.450;-2.032367;-0.004031
7.460;-2.024842;0.005926
7.470;-2.010007;0.015523
7.480;-1.988097;0.024981
7.490;-1.960101;0.034184
7.500;-1.927358;0.042844
7.510;-1.891122;0.050749
7.520;-1.852271;0.057967
7.530;-1.811288;0.064904
7.540;-1.768457;0.072184
7.550;-1.724156;0.080439
7.560;-1.679084;0.090140
7.570;-1.634302;0.101524
7.580;-1.591106;0.114636
7.590;-1.550788;0.129377
7.600;-1.514398;0.145530
7.610;-1.482575;0.162757
7.620;-1.455488;0.180614
7.630;-1.432895;0.198624
7.640;-1.414260;0.216416
7.650;-1.398891;0.233868
7.660;-1.386039;0.251179
7.670;-1.374964;0.268809
7.680;-1.365017;0.287321
7.690;-1.355722;0.307165
7.700;-1.346861;0.328486
7.710;-1.338527;0.351021
7.720;-1.331100;0.374130
7.730;-1.325140;0.396976
7.740;-1.321219;0.418791
7.750;-1.319720;0.439129
7.760;-1.320711;0.458007
7.770;-1.323921;0.475883
7.780;-1.328842;0.493513
7.790;-1.334935;0.511748
7.800;-1.341845;0.531338
7.810;-1.349553;0.552776
7.820;-1.358369;0.576210
7.830;-1.368755;0.601445
7.840;-1.381033;0.628024
7.850;-1.395112;0.655384
7.860;-1.410361;0.683007
7.870;-1.425712;0.710538
7.880;-1.439928;0.737835
7.890;-1.451951;0.764940
7.900;-1.461163;0.792013
7.910;-1.467498;0.819215
7.920;-1.471428;0.846573
7.930;-1.473874;0.873854
7.940;-1.476082;0.900506
7.950;-1.479470;0.925705
7.960;-1.485417;0.948476
