Time[s];COPx[cm];COPy[cm]
0.010;-0.055658;-0.227179
0.020;-0.005594;-0.248749
0.030;0.041084;-0.269962
0.040;0.081054;-0.290598
0.050;0.111788;-0.310840
0.060;0.131823;-0.331259
0.070;0.140806;-0.352652
0.080;0.139363;-0.375783
0.090;0.128820;-0.401133
0.100;0.110841;-0.428768
0.110;0.087059;-0.458411
0.120;0.058782;-0.489657
0.130;0.026840;-0.522197
0.140;-0.008439;-0.555902
0.150;-0.047157;-0.590767
0.160;-0.089725;-0.626811
0.170;-0.136718;-0.663991
0.180;-0.188680;-0.702163
0.190;-0.245824;-0.741054
0.200;-0.307637;-0.780265
0.210;-0.372494;-0.819269
0.220;-0.437530;-0.857384
0.230;-0.498943;-0.893710
0.240;-0.552776;-0.927097
0.250;-0.595937;-0.956262
0.260;-0.627097;-0.980107
0.270;-0.647077;-0.998119
0.280;-0.658547;-1.010653
0.290;-0.665126;-1.018920
0.300;-0.670215;-1.024674
0.310;-0.676001;-1.029723
0.320;-0.682932;-1.035460
0.330;-0.689816;-1.042572
0.340;-0.694440;-1.051056
0.350;-0.694489;-1.060461
0.360;-0.688410;-1.070228
0.370;-0.675959;-1.079931
0.380;-0.658249;-1.089350
0.390;-0.637354;-1.098388
0.400;-0.615640;-1.106930
0.410;-0.595106;-1.114723
0.420;-0.576957;-1.121357
0.430;-0.561519;-1.126378
0.440;-0.548459;-1.129478
0.450;-0.537171;-1.130666
0.460;-0.527176;-1.130295
0.470;-0.518377;-1.128960
0.480;-0.511094;-1.127336
0.490;-0.505926;-1.126086
0.500;-0.503514;-1.125843
0.510;-0.504366;-1.127235
0.520;-0.508815;-1.130876
0.530;-0.517100;-1.137319
0.540;-0.529506;-1.146965
0.550;-0.546446;-1.159966
0.560;-0.568444;-1.176155
0.570;-0.596004;-1.195037
0.580;-0.629428;-1.215867
0.590;-0.668669;-1.237784
0.600;-0.713333;-1.259935
0.610;-0.762817;-1.281521
0.620;-0.816499;-1.301760
0.630;-0.873871;-1.319851
0.640;-0.934501;-1.335029
0.650;-0.997791;-1.346716
0.660;-1.062599;-1.354694
0.670;-1.126880;-1.359180
0.680;-1.187570;-1.360753
0.690;-1.240888;-1.360145
0.700;-1.283053;-1.358030
0.710;-1.311159;-1.354874
0.720;-1.323868;-1.350907
0.730;-1.321610;-1.346181
0.740;-1.306258;-1.340699
0.750;-1.280481;-1.334534
0.760;-1.247108;-1.327896
0.770;-1.208717;-1.321129
0.780;-1.167482;-1.314660
0.790;-1.125177;-1.308958
0.800;-1.083225;-1.304516
0.810;-1.042748;-1.301839
0.820;-1.004614;-1.301415
0.830;-0.969506;-1.303682
0.840;-0.938002;-1.309001
0.850;-0.910640;-1.317632
0.860;-0.887978;-1.329702
0.870;-0.870635;-1.345144
0.880;-0.859322;-1.363672
0.890;-0.854796;-1.384834
0.900;-0.857715;-1.408182
0.910;-0.868400;-1.433473
0.920;-0.886620;-1.460794
0.930;-0.911572;-1.490521
0.940;-0.942126;-1.523143
0.950;-0.977245;-1.559034
0.960;-1.016359;-1.598253
0.970;-1.059474;-1.640458
0.980;-1.106938;-1.684965
0.990;-1.158982;-1.730955
1.000;-1.215251;-1.777736
1.010;-1.274541;-1.824933
1.020;-1.334865;-1.872481
1.030;-1.393825;-1.920411
1.040;-1.449191;-1.968543
1.050;-1.499449;-2.016252
1.060;-1.544085;-2.062448
1.070;-1.583484;-2.105783
1.080;-1.618479;-2.145033
1.090;-1.649786;-2.179487
1.100;-1.677624;-2.209221
1.110;-1.701671;-2.235157
1.120;-1.721345;-2.258881
1.130;-1.736242;-2.282288
1.140;-1.746520;-2.307152
1.150;-1.753059;-2.334747
1.160;-1.757357;-2.365588
1.170;-1.761226;-2.399334
1.180;-1.766394;-2.434853
1.190;-1.774160;-2.470427
1.200;-1.785178;-2.504049
1.210;-1.799384;-2.533749
1.220;-1.816045;-2.557933
1.230;-1.833895;-2.575717
1.240;-1.851357;-2.587185
1.250;-1.866794;-2.593493
1.260;-1.878744;-2.596705
1.270;-1.886050;-2.599386
1.280;-1.887877;-2.604028
1.290;-1.883649;-2.612507
1.300;-1.872979;-2.625728
1.310;-1.855623;-2.643565
1.320;-1.831485;-2.665084
1.330;-1.800650;-2.688970
1.340;-1.763469;-2.713978
1.350;-1.720641;-2.739257
1.360;-1.673258;-2.764467
1.370;-1.622753;-2.789686
1.380;-1.570702;-2.815179
1.390;-1.518545;-2.841113
1.400;-1.467310;-2.867324
1.410;-1.417464;-2.893199
1.420;-1.368950;-2.917726
1.430;-1.321395;-2.939678
1.440;-1.274411;-2.957873
1.450;-1.227883;-2.971439
1.460;-1.182205;-2.980020
1.470;-1.138377;-2.983885
1.480;-1.097950;-2.983889
1.490;-1.062772;-2.981262
1.500;-1.034595;-2.977283
1.510;-1.014661;-2.972964
1.520;-1.003433;-2.968855
1.530;-1.000549;-2.965022
1.540;-1.005000;-2.961182
1.550;-1.015393;-2.956927
1.560;-1.030196;-2.951957
1.570;-1.047915;-2.946272
1.580;-1.067202;-2.940244
1.590;-1.086903;-2.934546
1.600;-1.106063;-2.929949
1.610;-1.123927;-2.927056
1.620;-1.139957;-2.926094
1.630;-1.153857;-2.926857
1.640;-1.165593;-2.928817
1.650;-1.175352;-2.931312
1.660;-1.183445;-2.933727
1.670;-1.190209;-2.935598
1.680;-1.195956;-2.936665
1.690;-1.201018;-2.936874
1.700;-1.205867;-2.936383
1.710;-1.211206;-2.935554
1.720;-1.217955;-2.934928
1.730;-1.227069;-2.935088
1.740;-1.239275;-2.936433
1.750;-1.254858;-2.938919
1.760;-1.273621;-2.941948
1.770;-1.295044;-2.944525
1.780;-1.318545;-2.945641
1.790;-1.343656;-2.944703
1.800;-1.370001;-2.941764
1.810;-1.397032;-2.937450
1.820;-1.423664;-2.932591
1.830;-1.448002;-2.927792
1.840;-1.467321;-2.923148
1.850;-1.478390;-2.918234
1.860;-1.478080;-2.912342
1.870;-1.464061;-2.904800
1.880;-1.435347;-2.895230
1.890;-1.392514;-2.883672
1.900;-1.337539;-2.870571
1.910;-1.273312;-2.856674
1.920;-1.203002;-2.842877
1.930;-1.129428;-2.830065
1.940;-1.054591;-2.818938
1.950;-0.979402;-2.809874
1.960;-0.903635;-2.802843
1.970;-0.826118;-2.797426
1.980;-0.745159;-2.792974
1.990;-0.659178;-2.788850
2.000;-0.567391;-2.784698
2.010;-0.470325;-2.780617
2.020;-0.369962;-2.777163
2.030;-0.269411;-2.775127
2.040;-0.172206;-2.775147
2.050;-0.081472;-2.777318
2.060;0.000761;-2.781007
2.070;0.073875;-2.784943
2.080;0.138526;-2.787515
2.090;0.196158;-2.787127
2.100;0.248350;-2.782475
2.110;0.296258;-2.772689
2.120;0.340309;-2.757350
2.130;0.380229;-2.736397
2.140;0.415363;-2.709984
2.150;0.445121;-2.678319
2.160;0.469386;-2.641553
2.170;0.488723;-2.599747
2.180;0.504327;-2.552907
2.190;0.517731;-2.501077
2.200;0.530347;-2.444457
2.210;0.543045;-2.383521
2.220;0.555891;-2.319066
2.230;0.568178;-2.252170
2.240;0.578753;-2.184090
2.250;0.586514;-2.116135
2.260;0.590903;-2.049542
2.270;0.592200;-1.985352
2.280;0.591511;-1.924280
2.290;0.590481;-1.866647
2.300;0.590859;-1.812412
2.310;0.594048;-1.761348
2.320;0.600805;-1.713311
2.330;0.611147;-1.668486
2.340;0.624502;-1.627495
2.350;0.639999;-1.591283
2.360;0.656796;-1.560810
2.370;0.674332;-1.536673
2.380;0.692476;-1.518813
2.390;0.711554;-1.506403
2.400;0.732286;-1.497964
2.410;0.755647;-1.491650
2.420;0.782685;-1.485605
2.430;0.814342;-1.478275
2.440;0.851271;-1.468581
2.450;0.893645;-1.455941
2.460;0.940983;-1.440171
2.470;0.992043;-1.421366
2.480;1.044879;-1.399841
2.490;1.097097;-1.376139
2.500;1.146274;-1.351054
2.510;1.190415;-1.325591
2.520;1.228329;-1.300825
2.530;1.259783;-1.277677
2.540;1.285412;-1.256683
2.550;1.306420;-1.237838
2.560;1.324196;-1.220561
2.570;1.339960;-1.203817
2.580;1.354530;-1.186342
2.590;1.368255;-1.166890
2.600;1.381119;-1.144397
2.610;1.392964;-1.118001
2.620;1.403757;-1.086899
2.630;1.413816;-1.050136
2.640;1.423904;-1.006453
2.650;1.435157;-0.954287
2.660;1.448863;-0.891964
2.670;1.466172;-0.818015
2.680;1.487885;-0.731534
2.690;1.514385;-0.632487
2.700;1.545749;-0.521924
2.710;1.581938;-0.402044
2.720;1.622984;-0.276102
2.730;1.669066;-0.148128
2.740;1.720439;-0.022513
2.750;1.777226;0.096478
2.760;1.839151;0.205190
2.770;1.905310;0.300937
2.780;1.974102;0.382181
2.790;2.043364;0.448483
2.800;2.110676;0.500272
2.810;2.173729;0.538506
2.820;2.230641;0.564326
2.830;2.280134;0.578783
2.840;2.321535;0.582685
2.850;2.354571;0.576573
2.860;2.379031;0.560801
2.870;2.394424;0.535682
2.880;2.399821;0.501636
2.890;2.393983;0.459274
2.900;2.375748;0.409362
2.910;2.344476;0.352654
2.920;2.300386;0.289657
2.930;2.244662;0.220447
2.940;2.179306;0.144677
2.950;2.106840;0.061871
2.960;2.029972;-0.028068
2.970;1.951342;-0.124362
2.980;1.873399;-0.225117
2.990;1.798354;-0.327485
3.000;1.728140;-0.428180
3.010;1.664351;-0.524129
3.020;1.608202;-0.612981
3.030;1.560525;-0.693302
3.040;1.521803;-0.764472
3.050;1.492194;-0.826467
3.060;1.471462;-0.879696
3.070;1.458864;-0.924937
3.080;1.453071;-0.963310
3.090;1.452231;-0.996200
3.100;1.454200;-1.025092
3.110;1.456883;-1.051312
3.120;1.458538;-1.075736
3.130;1.457949;-1.098582
3.140;1.454443;-1.119364
3.150;1.447791;-1.137053
3.160;1.438076;-1.150425
3.170;1.425534;-1.158507
3.180;1.410404;-1.160929
3.190;1.392792;-1.158004
3.200;1.372614;-1.150475
3.210;1.349608;-1.139024
3.220;1.323414;-1.123822
3.230;1.293691;-1.104333
3.240;1.260245;-1.079451
3.250;1.223142;-1.047880
3.260;1.182735;-1.008612
3.270;1.139599;-0.961355
3.280;1.094347;-0.906821
3.290;1.047386;-0.846826
3.300;0.998657;-0.784135
3.310;0.947417;-0.722077
3.320;0.892127;-0.663974
3.330;0.830528;-0.612523
3.340;0.759965;-0.569279
3.350;0.677941;-0.534385
3.360;0.582805;-0.506614
3.370;0.474382;-0.483723
3.380;0.354331;-0.463023
3.390;0.226060;-0.442047
3.400;0.094183;-0.419155
3.410;-0.036360;-0.393922
3.420;-0.161201;-0.367196
3.430;-0.277182;-0.340824
3.440;-0.382521;-0.317201
3.450;-0.476503;-0.298762
3.460;-0.558916;-0.287552
3.470;-0.629510;-0.284903
3.480;-0.687750;-0.291259
3.490;-0.732895;-0.306150
3.500;-0.764285;-0.328291
3.510;-0.781627;-0.355760
3.520;-0.785164;-0.386246
3.530;-0.775692;-0.417319
3.540;-0.754507;-0.446691
3.550;-0.723328;-0.472450
3.560;-0.684205;-0.493254
3.570;-0.639428;-0.508505
3.580;-0.591442;-0.518437
3.590;-0.542807;-0.524031
3.600;-0.496169;-0.526706
3.610;-0.454193;-0.527869
3.620;-0.419361;-0.528517
3.630;-0.393653;-0.529055
3.640;-0.378149;-0.529452
3.650;-0.372731;-0.529647
3.660;-0.376001;-0.530042
3.670;-0.385512;-0.531808
3.680;-0.398304;-0.536824
3.690;-0.411607;-0.547236
3.700;-0.423438;-0.564837
3.710;-0.432895;-0.590579
3.720;-0.440035;-0.624443
3.730;-0.445434;-0.665740
3.740;-0.449644;-0.713672
3.750;-0.452754;-0.767888
3.760;-0.454203;-0.828783
3.770;-0.452831;-0.897431
3.780;-0.447140;-0.975159
3.790;-0.435653;-1.062925
3.800;-0.417298;-1.160696
3.810;-0.391721;-1.267049
3.820;-0.359444;-1.379163
3.830;-0.321816;-1.493203
3.840;-0.280828;-1.605004
3.850;-0.238830;-1.710812
3.860;-0.198249;-1.807886
3.870;-0.161329;-1.894798
3.880;-0.129941;-1.971405
3.890;-0.105504;-2.038539
3.900;-0.089014;-2.097546
3.910;-0.081133;-2.149818
3.920;-0.082249;-2.196424
3.930;-0.092446;-2.237945
3.940;-0.111418;-2.274516
3.950;-0.138420;-2.306023
3.960;-0.172325;-2.332344
3.970;-0.211811;-2.353518
3.980;-0.255591;-2.369801
3.990;-0.302584;-2.381604
4.000;-0.351932;-2.389411
4.010;-0.402859;-2.393717
4.020;-0.454474;-2.395019
4.030;-0.505614;-2.393870
4.040;-0.554821;-2.390948
4.050;-0.600466;-2.387127
4.060;-0.640984;-2.383504
4.070;-0.675140;-2.381361
4.080;-0.702215;-2.381988
4.090;-0.722021;-2.386370
4.100;-0.734748;-2.394841
4.110;-0.740757;-2.406850
4.120;-0.740464;-2.421022
4.130;-0.734374;-2.435548
4.140;-0.723174;-2.448791
4.150;-0.707711;-2.459861
4.160;-0.688786;-2.468933
4.170;-0.666814;-2.477171
4.180;-0.641532;-2.486313
4.190;-0.611944;-2.498054
4.200;-0.576586;-2.513466
4.210;-0.534079;-2.532634
4.220;-0.483785;-2.554692
4.230;-0.426295;-2.578228
4.240;-0.363501;-2.601886
4.250;-0.298169;-2.624871
4.260;-0.233148;-2.647156
4.270;-0.170513;-2.669363
4.280;-0.110978;-2.692433
4.290;-0.053788;-2.717244
4.300;0.002879;-2.744334
4.310;0.061193;-2.773782
4.320;0.122907;-2.805267
4.330;0.188828;-2.838249
4.340;0.258673;-2.872189
4.350;0.331286;-2.906717
4.360;0.405048;-2.941657
4.370;0.478280;-2.976915
4.380;0.549514;-3.012264
4.390;0.617560;-3.047163
4.400;0.681417;-3.080686
4.410;0.740090;-3.111648
4.420;0.792444;-3.138861
4.430;0.837165;-3.161443
4.440;0.872854;-3.179057
4.450;0.898227;-3.192017
4.460;0.912357;-3.201228
4.470;0.914889;-3.207987
4.480;0.906139;-3.213681
4.490;0.887005;-3.219447
4.500;0.858668;-3.225904
4.510;0.822188;-3.233001
4.520;0.778153;-3.240040
4.530;0.726565;-3.245860
4.540;0.666995;-3.249181
4.550;0.598941;-3.248999
4.560;0.522254;-3.244880
4.570;0.437556;-3.237036
4.580;0.346547;-3.226149
4.590;0.252119;-3.213068
4.600;0.158131;-3.198506
4.610;0.068841;-3.182891
4.620;-0.011864;-3.166393
4.630;-0.081187;-3.149082
4.640;-0.137817;-3.131088
4.650;-0.181894;-3.112650
4.660;-0.214592;-3.094052
4.670;-0.237460;-3.075510
4.680;-0.251735;-3.057053
4.690;-0.257852;-3.038432
4.700;-0.255306;-3.019044
4.710;-0.242935;-2.997953
4.720;-0.219502;-2.974084
4.730;-0.184389;-2.946589
4.740;-0.138156;-2.915269
4.750;-0.082785;-2.880857
4.760;-0.021544;-2.844992
4.770;0.041467;-2.809867
4.780;0.101940;-2.777676
4.790;0.155961;-2.750055
4.800;0.200483;-2.727663
4.810;0.233609;-2.710035
4.820;0.254694;-2.695733
4.830;0.264240;-2.682740
4.840;0.263636;-2.668961
4.850;0.254765;-2.652678
4.860;0.239581;-2.632832
4.870;0.219729;-2.609124
4.880;0.196284;-2.581926
4.890;0.169618;-2.552040
4.900;0.139441;-2.520383
4.910;0.105030;-2.487687
4.920;0.065661;-2.454327
4.930;0.021148;-2.420288
4.940;-0.027633;-2.385251
4.950;-0.078421;-2.348740
4.960;-0.127613;-2.310311
4.970;-0.170765;-2.269723
4.980;-0.203482;-2.227068
4.990;-0.222444;-2.182782
5.000;-0.226194;-2.137531
5.010;-0.215339;-2.091977
5.020;-0.192069;-2.046506
5.030;-0.159168;-2.001045
5.040;-0.118929;-1.955049
5.050;-0.072364;-1.907656
5.060;-0.018926;-1.857953
5.070;0.043206;-1.805258
5.080;0.116441;-1.749376
5.090;0.202905;-1.690786
5.100;0.303662;-1.630723
5.110;0.418207;-1.571118
5.120;0.544330;-1.514378
5.130;0.678387;-1.463035
5.140;0.815874;-1.419331
5.150;0.952160;-1.384816
5.160;1.083175;-1.360076
5.170;1.205888;-1.344684
5.180;1.318507;-1.337425
5.190;1.420419;-1.336722
5.200;1.511964;-1.341122
5.210;1.594072;-1.349652
5.220;1.667824;-1.361904
5.230;1.733997;-1.377801
5.240;1.792727;-1.397166
5.250;1.843438;-1.419350
5.260;1.885090;-1.443120
5.270;1.916605;-1.466844
5.280;1.937265;-1.488882
5.290;1.946912;-1.508004
5.300;1.945941;-1.523716
5.310;1.935171;-1.536368
5.320;1.915750;-1.547019
5.330;1.889157;-1.557092
5.340;1.857286;-1.567947
5.350;1.822523;-1.580534
5.360;1.787707;-1.595189
5.370;1.755934;-1.611570
5.380;1.730217;-1.628702
5.390;1.713117;-1.645109
5.400;1.706448;-1.659001
5.410;1.711169;-1.668482
5.420;1.727509;-1.671719
5.430;1.755277;-1.667073
5.440;1.794211;-1.653227
5.450;1.844193;-1.629372
5.460;1.905187;-1.595434
5.470;1.976934;-1.552232
5.480;2.058536;-1.501455
5.490;2.148171;-1.445434
5.500;2.243082;-1.386774
5.510;2.339859;-1.327964
5.520;2.434888;-1.271055
5.530;2.524815;-1.217442
5.540;2.606878;-1.167758
5.550;2.679052;-1.121881
5.560;2.740007;-1.079103
5.570;2.788927;-1.038443
5.580;2.825214;-0.999067
5.590;2.848199;-0.960672
5.600;2.856968;-0.923688
5.610;2.850431;-0.889228
5.620;2.827650;-0.858773
5.630;2.788280;-0.833689
5.640;2.732909;-0.814727
5.650;2.663050;-0.801640
5.660;2.580704;-0.793056
5.670;2.487631;-0.786637
5.680;2.384656;-0.779468
5.690;2.271381;-0.768563
5.700;2.146459;-0.751355
5.710;2.008300;-0.726099
5.720;1.855943;-0.692175
5.730;1.689776;-0.650274
5.740;1.511938;-0.602416
5.750;1.326296;-0.551723
5.760;1.138043;-0.501839
5.770;0.953029;-0.456071
5.780;0.777065;-0.416499
5.790;0.615377;-0.383391
5.800;0.472295;-0.355173
5.810;0.351118;-0.328919
5.820;0.254028;-0.301101
5.830;0.181995;-0.268302
5.840;0.134702;-0.227686
5.850;0.110563;-0.177239
5.860;0.106910;-0.115856
5.870;0.120314;-0.043376
5.880;0.146971;0.039415
5.890;0.183028;0.130819
5.900;0.224819;0.228331
5.910;0.268976;0.328811
5.920;0.312415;0.428789
5.930;0.352228;0.524885
5.940;0.385543;0.614322
5.950;0.409475;0.695361
5.960;0.421262;0.767489
5.970;0.418644;0.831224
5.980;0.400383;0.887539
5.990;0.366730;0.937124
6.000;0.319609;0.979784
6.010;0.262402;1.014292
6.020;0.199373;1.038759
6.030;0.134932;1.051326
6.040;0.072954;1.050857
6.050;0.016341;1.037375
6.060;-0.033142;1.012129
6.070;-0.074808;0.977340
6.080;-0.108855;0.935766
6.090;-0.136101;0.890227
6.100;-0.157702;0.843164
6.110;-0.174928;0.796333
6.120;-0.189018;0.750680
6.130;-0.201082;0.706464
6.140;-0.211979;0.663554
6.150;-0.222096;0.621740
6.160;-0.231045;0.580910
6.170;-0.237392;0.541025
6.180;-0.238662;0.501950
6.190;-0.231807;0.463273
6.200;-0.214140;0.424258
6.210;-0.184424;0.384022
6.220;-0.143660;0.341885
6.230;-0.095158;0.297697
6.240;-0.043836;0.251972
6.250;0.004965;0.205757
6.260;0.046696;0.160320
6.270;0.078456;0.116783
6.280;0.099319;0.075837
6.290;0.110135;0.037587
6.300;0.112955;0.001577
6.310;0.110309;-0.033017
6.320;0.104529;-0.067103
6.330;0.097309;-0.101395
6.340;0.089524;-0.136254
6.350;0.081307;-0.171688
6.360;0.072255;-0.207496
6.370;0.061698;-0.243466
6.380;0.048985;-0.279577
6.390;0.033745;-0.316128
6.400;0.016095;-0.353770
6.410;-0.003284;-0.393403
6.420;-0.023224;-0.435959
6.430;-0.042284;-0.482110
6.440;-0.059061;-0.532004
6.450;-0.072479;-0.585146
6.460;-0.081987;-0.640455
6.470;-0.087604;-0.696487
6.480;-0.089816;-0.751728
6.490;-0.089416;-0.804887
6.500;-0.087348;-0.855132
6.510;-0.084588;-0.902195
6.520;-0.082075;-0.946309
6.530;-0.080670;-0.987987
6.540;-0.081127;-1.027729
6.550;-0.084072;-1.065772
6.560;-0.089959;-1.101975
6.570;-0.098970;-1.135826
6.580;-0.110888;-1.166539
6.590;-0.124991;-1.193243
6.600;-0.140048;-1.215247
6.610;-0.154493;-1.232373
6.620;-0.166790;-1.245177
6.630;-0.175875;-1.254952
6.640;-0.181509;-1.263452
6.650;-0.184366;-1.272445
6.660;-0.185813;-1.283273
6.670;-0.187489;-1.296575
6.680;-0.190834;-1.312230
6.690;-0.196757;-1.329512
6.700;-0.205504;-1.347334
6.710;-0.216733;-1.364487
6.720;-0.229719;-1.379811
6.730;-0.243603;-1.392344
6.740;-0.257612;-1.401429
6.750;-0.271221;-1.406786
6.760;-0.284212;-1.408506
6.770;-0.296600;-1.406990
6.780;-0.308486;-1.402869
6.790;-0.319883;-1.396932
6.800;-0.330615;-1.390072
6.810;-0.340290;-1.383257
6.820;-0.348343;-1.377489
6.830;-0.354078;-1.373759
6.840;-0.356709;-1.372983
6.850;-0.355390;-1.375943
6.860;-0.349241;-1.383241
6.870;-0.337394;-1.395263
6.880;-0.319070;-1.412175
6.890;-0.293691;-1.433954
6.900;-0.261030;-1.460439
6.910;-0.221332;-1.491366
6.920;-0.175400;-1.526364
6.930;-0.124576;-1.564950
6.940;-0.070612;-1.606539
6.950;-0.015454;-1.650485
6.960;0.039022;-1.696109
6.970;0.091254;-1.742715
6.980;0.140140;-1.789552
6.990;0.185107;-1.835748
7.000;0.226073;-1.880231
7.010;0.263313;-1.921700
7.020;0.297243;-1.958653
7.030;0.328142;-1.989493
7.040;0.355945;-2.012668
7.050;0.380172;-2.026805
7.060;0.400070;-2.030829
7.070;0.414898;-2.024067
7.080;0.424209;-2.006325
7.090;0.427996;-1.977915
7.100;0.426630;-1.939619
7.110;0.420645;-1.892563
7.120;0.410498;-1.838036
7.130;0.396440;-1.777264
7.140;0.378575;-1.711229
7.150;0.357105;-1.640537
7.160;0.332691;-1.565362
7.170;0.306845;-1.485505
7.180;0.282159;-1.400594
7.190;0.262244;-1.310404
7.200;0.251267;-1.215163
7.210;0.253160;-1.115735
7.220;0.270741;-1.013604
7.230;0.305052;-0.910728
7.240;0.355160;-0.809356
7.250;0.418469;-0.711868
7.260;0.491385;-0.620645
7.270;0.570099;-0.537940
7.280;0.651243;-0.465710
7.290;0.732274;-0.405412
7.300;0.811561;-0.357803
7.310;0.888201;-0.322781
7.320;0.961665;-0.299310
7.330;1.031404;-0.285487
7.340;1.096539;-0.278773
7.350;1.155757;-0.276436
7.360;1.207439;-0.276068
7.370;1.249966;-0.276038
7.380;1.282050;-0.275666
7.390;1.302983;-0.275086
7.400;1.312696;-0.274865
7.410;1.311670;-0.275578
7.420;1.300738;-0.277490
7.430;1.280885;-0.280463
7.440;1.253094;-0.284109
7.450;1.218252;-0.288120
7.460;1.177095;-0.292615
7.470;1.130165;-0.298326
7.480;1.077793;-0.306541
7.490;1.020114;-0.318807
7.500;0.957134;-0.336518
7.510;0.888823;-0.360476
7.520;0.815254;-0.390537
7.530;0.736752;-0.425393
7.540;0.654023;-0.462614
7.550;0.568163;-0.499030
7.560;0.480490;-0.531398
7.570;0.392156;-0.557151
7.580;0.303680;-0.574957
7.590;0.214602;-0.584884
7.600;0.123495;-0.588140
7.610;0.028421;-0.586516
7.620;-0.072264;-0.581760
7.630;-0.179017;-0.575077
7.640;-0.290446;-0.566908
7.650;-0.403151;-0.556979
7.660;-0.512225;-0.544541
7.670;-0.612289;-0.528637
7.680;-0.698772;-0.508299
7.690;-0.768974;-0.482648
7.700;-0.822565;-0.450953
7.710;-0.861388;-0.412707
7.720;-0.888708;-0.367753
7.730;-0.908264;-0.316443
7.740;-0.923462;-0.259734
7.750;-0.936889;-0.199160
7.760;-0.950145;-0.136676
7.770;-0.963816;-0.074424
7.780;-0.977484;-0.014524
7.790;-0.989727;0.041067
7.800;-0.998169;0.090636
7.810;-0.999696;0.132785
7.820;-0.990895;0.166494
7.830;-0.968728;0.191164
7.840;-0.931282;0.206581
7.850;-0.878349;0.212851
