Time[s];COPx[cm];COPy[cm]
0.010;-1.915259;1.064841
0.020;-1.898963;1.085272
0.030;-1.879667;1.105200
0.040;-1.855174;1.123983
0.050;-1.824640;1.140817
0.060;-1.788761;1.154772
0.070;-1.749548;1.164918
0.080;-1.709765;1.170489
0.090;-1.672221;1.171036
0.100;-1.639116;1.166541
0.110;-1.611638;1.157455
0.120;-1.589893;1.144641
0.130;-1.573142;1.129213
0.140;-1.560212;1.112324
0.150;-1.549926;1.094983
0.160;-1.541405;1.077935
0.170;-1.534177;1.061640
0.180;-1.528158;1.046311
0.190;-1.523586;1.031978
0.200;-1.520965;1.018528
0.210;-1.521023;1.005720
0.220;-1.524586;0.993216
0.230;-1.532353;0.980681
0.240;-1.544608;0.967972
0.250;-1.560980;0.955320
0.260;-1.580342;0.943398
0.270;-1.600896;0.933201
0.280;-1.620402;0.925767
0.290;-1.636499;0.921845
0.300;-1.647095;0.921651
0.310;-1.650740;0.924794
0.320;-1.646924;0.930415
0.330;-1.636204;0.937468
0.340;-1.620129;0.945035
0.350;-1.600969;0.952515
0.360;-1.581294;0.959618
0.370;-1.563456;0.966205
0.380;-1.549110;0.972132
0.390;-1.538932;0.977218
0.400;-1.532633;0.981347
0.410;-1.529277;0.984641
0.420;-1.527719;0.987550
0.430;-1.526967;0.990798
0.440;-1.526348;0.995173
0.450;-1.525487;1.001246
0.460;-1.524192;1.009128
0.470;-1.522370;1.018361
0.480;-1.520003;1.028003
0.490;-1.517177;1.036890
0.500;-1.514101;1.043980
0.510;-1.511102;1.048633
0.520;-1.508599;1.050724
0.530;-1.507069;1.050563
0.540;-1.507016;1.048678
0.550;-1.508892;1.045571
0.560;-1.512981;1.041584
0.570;-1.519253;1.036915
0.580;-1.527273;1.031764
0.590;-1.536232;1.026460
0.600;-1.545114;1.021478
0.610;-1.552954;1.017293
0.620;-1.559121;1.014155
0.630;-1.563532;1.011950
0.640;-1.566721;1.010231
0.650;-1.569714;1.008439
0.660;-1.573738;1.006181
0.670;-1.579872;1.003399
0.680;-1.588783;1.000338
0.690;-1.600643;0.997327
0.700;-1.615234;0.994521
0.710;-1.632102;0.991754
0.720;-1.650655;0.988559
0.730;-1.670167;0.984331
0.740;-1.689731;0.978561
0.750;-1.708259;0.971034
0.760;-1.724571;0.961920
0.770;-1.737560;0.951738
0.780;-1.746373;0.941207
0.790;-1.750525;0.931081
0.800;-1.749946;0.922007
0.810;-1.744964;0.914443
0.820;-1.736257;0.908639
0.830;-1.724758;0.904670
0.840;-1.711508;0.902528
0.850;-1.697480;0.902243
0.860;-1.683439;0.903984
0.870;-1.669877;0.908078
0.880;-1.657020;0.914938
0.890;-1.644882;0.924924
0.900;-1.633337;0.938195
0.910;-1.622176;0.954632
0.920;-1.611149;0.973846
0.930;-1.599977;0.995263
0.940;-1.588360;1.018205
0.950;-1.575988;1.041918
0.960;-1.562589;1.065589
0.970;-1.548006;1.088372
0.980;-1.532282;1.109466
0.990;-1.515685;1.128208
1.000;-1.498636;1.144138
1.010;-1.481550;1.157009
1.020;-1.464701;1.166762
1.030;-1.448198;1.173491
1.040;-1.432131;1.177422
1.050;-1.416836;1.178886
1.060;-1.403124;1.178278
1.070;-1.392316;1.175994
1.080;-1.386010;1.172359
1.090;-1.385622;1.167599
1.100;-1.391887;1.161865
1.110;-1.404536;1.155301
1.120;-1.422297;1.148090
1.130;-1.443244;1.140456
1.140;-1.465386;1.132617
1.150;-1.487274;1.124738
1.160;-1.508414;1.116900
1.170;-1.529349;1.109120
1.180;-1.551411;1.101413
1.190;-1.576255;1.093863
1.200;-1.605333;1.086681
1.210;-1.639439;1.080193
1.220;-1.678386;1.074787
1.230;-1.720864;1.070815
1.240;-1.764501;1.068509
1.250;-1.806165;1.067918
1.260;-1.842532;1.068900
1.270;-1.870796;1.071165
1.280;-1.889299;1.074399
1.290;-1.897850;1.078397
1.300;-1.897647;1.083134
1.310;-1.890880;1.088721
1.320;-1.880219;1.095300
1.330;-1.868339;1.102947
1.340;-1.857559;1.111618
1.350;-1.849551;1.121147
1.360;-1.845099;1.131291
1.370;-1.843930;1.141806
1.380;-1.844738;1.152517
1.390;-1.845448;1.163348
1.400;-1.843698;1.174271
1.410;-1.837387;1.185211
1.420;-1.825108;1.195947
1.430;-1.806351;1.206088
1.440;-1.781430;1.215121
1.450;-1.751260;1.222489
1.460;-1.717131;1.227668
1.470;-1.680620;1.230218
1.480;-1.643662;1.229828
1.490;-1.608596;1.226362
1.500;-1.578028;1.219922
1.510;-1.554382;1.210892
1.520;-1.539302;1.199931
1.530;-1.533144;1.187900
1.540;-1.534842;1.175730
1.550;-1.542213;1.164266
1.560;-1.552582;1.154129
1.570;-1.563442;1.145643
1.580;-1.572922;1.138847
1.590;-1.579970;1.133582
1.600;-1.584272;1.129601
1.610;-1.586026;1.126669
1.620;-1.585675;1.124643
1.630;-1.583695;1.123523
1.640;-1.580471;1.123466
1.650;-1.576268;1.124727
1.660;-1.571247;1.127542
1.670;-1.565512;1.132022
1.680;-1.559138;1.138085
1.690;-1.552153;1.145465
1.700;-1.544478;1.153762
1.710;-1.535871;1.162525
1.720;-1.525917;1.171343
1.730;-1.514138;1.179931
1.740;-1.500222;1.188197
1.750;-1.484293;1.196274
1.760;-1.467107;1.204475
1.770;-1.450014;1.213139
1.780;-1.434648;1.222428
1.790;-1.422425;1.232188
1.800;-1.414091;1.242003
1.810;-1.409539;1.251428
1.820;-1.407952;1.260252
1.830;-1.408210;1.268601
1.840;-1.409320;1.276809
1.850;-1.410720;1.285175
1.860;-1.412364;1.293777
1.870;-1.414622;1.302430
1.880;-1.418102;1.310769
1.890;-1.423452;1.318393
1.900;-1.431196;1.324981
1.910;-1.441589;1.330341
1.920;-1.454526;1.334367
1.930;-1.469510;1.336966
1.940;-1.485715;1.338012
1.950;-1.502143;1.337390
1.960;-1.517819;1.335110
1.970;-1.531965;1.331440
1.980;-1.544102;1.326946
1.990;-1.554021;1.322410
2.000;-1.561642;1.318642
2.010;-1.566810;1.316270
2.020;-1.569129;1.315599
2.030;-1.567955;1.316589
2.040;-1.562589;1.318953
2.050;-1.552601;1.322324
2.060;-1.538137;1.326423
2.070;-1.520077;1.331184
2.080;-1.499921;1.336779
2.090;-1.479471;1.343528
2.100;-1.460385;1.351694
2.110;-1.443783;1.361215
2.120;-1.430002;1.371531
2.130;-1.418571;1.381607
2.140;-1.408395;1.390227
2.150;-1.398089;1.396445
2.160;-1.386409;1.399981
2.170;-1.372678;1.401362
2.180;-1.357058;1.401735
2.190;-1.340571;1.402423
2.200;-1.324801;1.404446
2.210;-1.311385;1.408178
2.220;-1.301477;1.413296
2.230;-1.295372;1.418983
2.240;-1.292433;1.424290
2.250;-1.291311;1.428473
2.260;-1.290354;1.431156
2.270;-1.288078;1.432278
2.280;-1.283567;1.431886
2.290;-1.276759;1.429930
2.300;-1.268570;1.426175
2.310;-1.260812;1.420306
2.320;-1.255897;1.412138
2.330;-1.256323;1.401813
2.340;-1.264091;1.389863
2.350;-1.280218;1.377108
2.360;-1.304529;1.364449
2.370;-1.335755;1.352642
2.380;-1.371923;1.342147
2.390;-1.410866;1.333074
2.400;-1.450719;1.325224
2.410;-1.490255;1.318182
2.420;-1.529005;1.311447
2.430;-1.567164;1.304575
2.440;-1.605326;1.297320
2.450;-1.644116;1.289741
2.460;-1.683775;1.282212
2.470;-1.723831;1.275331
2.480;-1.762930;1.269769
2.490;-1.798905;1.266125
2.500;-1.829102;1.264806
2.510;-1.850886;1.265972
2.520;-1.862249;1.269531
2.530;-1.862340;1.275180
2.540;-1.851755;1.282481
2.550;-1.832446;1.290925
2.560;-1.807267;1.299987
2.570;-1.779300;1.309169
2.580;-1.751210;1.318056
2.590;-1.724824;1.326366
2.600;-1.701029;1.333989
2.610;-1.679943;1.340986
2.620;-1.661225;1.347556
2.630;-1.644393;1.353927
2.640;-1.629038;1.360223
2.650;-1.614921;1.366345
2.660;-1.601965;1.371951
2.670;-1.590206;1.376537
2.680;-1.579714;1.379613
2.690;-1.570500;1.380883
2.700;-1.562428;1.380351
2.710;-1.555162;1.378316
2.720;-1.548166;1.375272
2.730;-1.540798;1.371811
2.740;-1.532497;1.368541
2.750;-1.523012;1.366021
2.760;-1.512544;1.364646
2.770;-1.501700;1.364511
2.780;-1.491246;1.365334
2.790;-1.481771;1.366550
2.800;-1.473397;1.367571
2.810;-1.465681;1.368082
2.820;-1.457742;1.368209
2.830;-1.448569;1.368450
2.840;-1.437372;1.369442
2.850;-1.423832;1.371687
2.860;-1.408147;1.375407
2.870;-1.390896;1.380567
2.880;-1.372774;1.387017
2.890;-1.354313;1.394633
2.900;-1.335657;1.403347
2.910;-1.316461;1.413064
2.920;-1.295964;1.423522
2.930;-1.273217;1.434205
2.940;-1.247427;1.444376
2.950;-1.218288;1.453226
2.960;-1.186235;1.460092
2.970;-1.152523;1.464633
2.980;-1.119113;1.466911
2.990;-1.088372;1.467325
3.000;-1.062623;1.466482
3.010;-1.043658;1.465031
3.020;-1.032320;1.463536
3.030;-1.028313;1.462373
3.040;-1.030294;1.461665
3.050;-1.036251;1.461259
3.060;-1.044084;1.460768
3.070;-1.052193;1.459648
3.080;-1.059891;1.457319
3.090;-1.067521;1.453315
3.100;-1.076233;1.447435
3.110;-1.087520;1.439830
3.120;-1.102637;1.430962
3.130;-1.122100;1.421457
3.140;-1.145408;1.411934
3.150;-1.171096;1.402868
3.160;-1.197074;1.394524
3.170;-1.221097;1.386947
3.180;-1.241191;1.380004
3.190;-1.255926;1.373473
3.200;-1.264518;1.367159
3.210;-1.266834;1.360986
3.220;-1.263350;1.355048
3.230;-1.255076;1.349576
3.240;-1.243410;1.344878
3.250;-1.229930;1.341283
3.260;-1.216138;1.339113
3.270;-1.203219;1.338671
3.280;-1.191883;1.340212
3.290;-1.182337;1.343874
3.300;-1.174403;1.349589
3.310;-1.167725;1.357058
3.320;-1.161970;1.365839
3.330;-1.156948;1.375505
3.340;-1.152590;1.385822
3.350;-1.148863;1.396827
3.360;-1.145653;1.408769
3.370;-1.142716;1.421931
3.380;-1.139694;1.436443
3.390;-1.136227;1.452167
3.400;-1.132118;1.468704
3.410;-1.127513;1.485490
3.420;-1.122953;1.501904
3.430;-1.119246;1.517351
3.440;-1.117167;1.531312
3.450;-1.117127;1.543378
3.460;-1.118953;1.553273
3.470;-1.121905;1.560851
3.480;-1.124905;1.566063
3.490;-1.126924;1.568882
3.500;-1.127371;1.569245
3.510;-1.126352;1.567017
3.520;-1.124690;1.562015
3.530;-1.123700;1.554081
3.540;-1.124777;1.543184
3.550;-1.128968;1.529493
3.560;-1.136663;1.513399
3.570;-1.147529;1.495462
3.580;-1.160686;1.476305
3.590;-1.175036;1.456494
3.600;-1.189616;1.436464
3.610;-1.203846;1.416526
3.620;-1.217565;1.396947
3.630;-1.230887;1.378048
3.640;-1.243915;1.360272
3.650;-1.256461;1.344190
3.660;-1.267913;1.330455
3.670;-1.277311;1.319686
3.680;-1.283616;1.312336
3.690;-1.286020;1.308596
3.700;-1.284173;1.308359
3.710;-1.278241;1.311249
3.720;-1.268779;1.316669
3.730;-1.256504;1.323871
3.740;-1.242049;1.332054
3.750;-1.225815;1.340477
3.760;-1.207964;1.348583
3.770;-1.188571;1.356080
3.780;-1.167873;1.362964
3.790;-1.146494;1.369453
3.800;-1.125535;1.375853
3.810;-1.106447;1.382418
3.820;-1.090712;1.389239
3.830;-1.079474;1.396212
3.840;-1.073266;1.403055
3.850;-1.071956;1.409385
3.860;-1.074906;1.414808
3.870;-1.081231;1.418971
3.880;-1.090030;1.421575
3.890;-1.100522;1.422355
3.900;-1.112112;1.421093
3.910;-1.124412;1.417690
3.920;-1.137241;1.412266
3.930;-1.150594;1.405205
3.940;-1.164579;1.397081
3.950;-1.179349;1.388488
3.960;-1.195052;1.379834
3.970;-1.211806;1.371225
3.980;-1.229664;1.362499
3.990;-1.248565;1.353395
4.000;-1.268294;1.343808
4.010;-1.288460;1.333976
4.020;-1.308541;1.324496
4.030;-1.327979;1.316145
4.040;-1.346300;1.309581
4.050;-1.363214;1.305068
4.060;-1.378669;1.302382
4.070;-1.392854;1.300936
4.080;-1.406167;1.300058
4.090;-1.419169;1.299260
4.100;-1.432535;1.298391
4.110;-1.447019;1.297645
4.120;-1.463410;1.297468
4.130;-1.482434;1.298413
4.140;-1.504579;1.300960
4.150;-1.529837;1.305339
4.160;-1.557493;1.311414
4.170;-1.586077;1.318666
4.180;-1.613585;1.326299
4.190;-1.637930;1.333396
4.200;-1.657483;1.339084
4.210;-1.671500;1.342652
4.220;-1.680290;1.343638
4.230;-1.685051;1.341896
4.240;-1.687493;1.337631
4.250;-1.689380;1.331375
4.260;-1.692138;1.323881
4.270;-1.696632;1.315949
4.280;-1.703096;1.308261
4.290;-1.711200;1.301276
4.300;-1.720237;1.295190
4.310;-1.729371;1.289950
4.320;-1.737911;1.285277
4.330;-1.745503;1.280745
4.340;-1.752179;1.275911
4.350;-1.758280;1.270463
4.360;-1.764331;1.264358
4.370;-1.770955;1.257872
4.380;-1.778834;1.251562
4.390;-1.788653;1.246122
4.400;-1.800967;1.242168
4.410;-1.815983;1.240031
4.420;-1.833355;1.239639
4.430;-1.852096;1.240571
4.440;-1.870698;1.242210
4.450;-1.887443;1.243930
4.460;-1.900824;1.245226
4.470;-1.909922;1.245778
4.480;-1.914628;1.245465
4.490;-1.915634;1.244338
4.500;-1.914226;1.242532
4.510;-1.911965;1.240153
4.520;-1.910353;1.237165
4.530;-1.910568;1.233339
4.540;-1.913300;1.228267
4.550;-1.918700;1.221446
4.560;-1.926425;1.212432
4.570;-1.935757;1.201019
4.580;-1.945819;1.187379
4.590;-1.955866;1.172064
4.600;-1.965638;1.155839
4.610;-1.975644;1.139389
4.620;-1.987270;1.123043
4.630;-2.002584;1.106667
4.640;-2.023814;1.089748
4.650;-2.052626;1.071642
4.660;-2.089442;1.051862
4.670;-2.133055;1.030323
4.680;-2.180721;1.007451
4.690;-2.228662;0.984153
4.700;-2.272820;0.961618
4.710;-2.309591;0.941035
4.720;-2.336385;0.923323
4.730;-2.351927;0.908972
4.740;-2.356297;0.898043
4.750;-2.350750;0.890294
4.760;-2.337369;0.885367
4.770;-2.318604;0.882966
4.780;-2.296795;0.882990
4.790;-2.273799;0.885577
4.800;-2.250835;0.891048
4.810;-2.228548;0.899749
4.820;-2.207201;0.911855
4.830;-2.186855;0.927209
4.840;-2.167466;0.945275
4.850;-2.148913;0.965214
4.860;-2.131025;0.986031
4.870;-2.113627;1.006707
4.880;-2.096630;1.026286
4.890;-2.080108;1.043932
4.900;-2.064316;1.059003
4.910;-2.049646;1.071146
4.920;-2.036526;1.080372
4.930;-2.025294;1.087060
4.940;-2.016044;1.091880
4.950;-2.008473;1.095667
4.960;-2.001788;1.099265
4.970;-1.994750;1.103361
4.980;-1.985889;1.108344
4.990;-1.973866;1.114247
5.000;-1.957863;1.120804
5.010;-1.937845;1.127608
5.020;-1.914596;1.134279
5.030;-1.889529;1.140593
5.040;-1.864344;1.146540
5.050;-1.840668;1.152332
5.060;-1.819761;1.158337
5.070;-1.802334;1.164977
5.080;-1.788483;1.172593
5.090;-1.777744;1.181348
5.100;-1.769290;1.191211
5.110;-1.762254;1.201996
5.120;-1.756117;1.213411
5.130;-1.751015;1.225065
5.140;-1.747818;1.236428
5.150;-1.747909;1.246826
5.160;-1.752695;1.255522
5.170;-1.763030;1.261907
5.180;-1.778782;1.265713
5.190;-1.798706;1.267127
5.200;-1.820701;1.266692
5.210;-1.842327;1.265015
5.220;-1.861394;1.262459
5.230;-1.876417;1.258987
5.240;-1.886825;1.254223
5.250;-1.892915;1.247675
5.260;-1.895614;1.238988
5.270;-1.896176;1.228129
5.280;-1.895867;1.215444
5.290;-1.895687;1.201616
5.300;-1.896169;1.187556
5.310;-1.897297;1.174254
5.320;-1.898578;1.162620
5.330;-1.899259;1.153335
5.340;-1.898621;1.146781
5.350;-1.896235;1.143080
5.360;-1.892080;1.142228
5.370;-1.886488;1.144211
5.380;-1.879953;1.149019
5.390;-1.872904;1.156522
5.400;-1.865568;1.166349
5.410;-1.857964;1.177855
5.420;-1.850007;1.190279
5.430;-1.841623;1.202992
5.440;-1.832824;1.215710
5.450;-1.823718;1.228506
5.460;-1.814483;1.241609
5.470;-1.805332;1.255103
5.480;-1.796482;1.268702
5.490;-1.788105;1.281762
5.500;-1.780268;1.293506
5.510;-1.772887;1.303333
5.520;-1.765736;1.311013
5.530;-1.758471;1.316694
5.540;-1.750667;1.320724
5.550;-1.741870;1.323425
5.560;-1.731672;1.324962
5.570;-1.719844;1.325382
5.580;-1.706447;1.324780
5.590;-1.691831;1.323445
5.600;-1.676482;1.321862
5.610;-1.660788;1.320563
5.620;-1.644865;1.319917
5.630;-1.628558;1.320011
5.640;-1.611638;1.320676
5.650;-1.594096;1.321624
5.660;-1.576393;1.322604
5.670;-1.559503;1.323476
5.680;-1.544728;1.324196
5.690;-1.533362;1.324746
5.700;-1.526383;1.325092
5.710;-1.524322;1.325175
5.720;-1.527306;1.324948
5.730;-1.535191;1.324407
5.740;-1.547673;1.323587
5.750;-1.564348;1.322540
5.760;-1.584732;1.321325
5.770;-1.608282;1.320050
5.780;-1.634381;1.318953
5.790;-1.662281;1.318456
5.800;-1.691007;1.319134
5.810;-1.719289;1.321574
5.820;-1.745592;1.326160
5.830;-1.768270;1.332896
5.840;-1.785821;1.341352
5.850;-1.797175;1.350770
5.860;-1.801922;1.360283
5.870;-1.800391;1.369172
5.880;-1.793506;1.377053
5.890;-1.782478;1.383935
5.900;-1.768448;1.390143
5.910;-1.752245;1.396165
5.920;-1.734326;1.402476
5.930;-1.714906;1.409389
5.940;-1.694191;1.416969
5.950;-1.672593;1.425001
5.960;-1.650864;1.433031
5.970;-1.630097;1.440469
5.980;-1.611604;1.446745
5.990;-1.596706;1.451466
6.000;-1.586468;1.454517
6.010;-1.581424;1.456075
6.020;-1.581380;1.456519
6.030;-1.585353;1.456315
6.040;-1.591695;1.455900
6.050;-1.598370;1.455606
6.060;-1.603310;1.455618
6.070;-1.604754;1.455954
6.080;-1.601503;1.456476
6.090;-1.593015;1.456929
6.100;-1.579370;1.457006
6.110;-1.561145;1.456436
6.120;-1.539251;1.455046
6.130;-1.514783;1.452789
6.140;-1.488882;1.449735
6.150;-1.462630;1.446044
6.160;-1.436997;1.441958
6.170;-1.412821;1.437788
6.180;-1.390792;1.433911
6.190;-1.371365;1.430727
6.200;-1.354657;1.428580
6.210;-1.340375;1.427673
6.220;-1.327901;1.428037
6.230;-1.316514;1.429572
6.240;-1.305634;1.432121
6.250;-1.294961;1.435524
6.260;-1.284456;1.439644
6.270;-1.274199;1.444363
6.280;-1.264256;1.449558
6.290;-1.254640;1.455074
6.300;-1.245395;1.460712
6.310;-1.236703;1.466262
6.320;-1.228911;1.471571
6.330;-1.222415;1.476586
6.340;-1.217477;1.481340
6.350;-1.214092;1.485870
6.360;-1.211971;1.490092
6.370;-1.210656;1.493726
6.380;-1.209714;1.496325
6.390;-1.208916;1.497406
6.400;-1.208351;1.496631
6.410;-1.208419;1.493928
6.420;-1.209705;1.489502
6.430;-1.212794;1.483753
6.440;-1.218125;1.477138
6.450;-1.225950;1.470037
6.460;-1.236367;1.462683
6.470;-1.249390;1.455159
6.480;-1.264989;1.447446
6.490;-1.283104;1.439474
6.500;-1.303611;1.431177
6.510;-1.326230;1.422535
6.520;-1.350415;1.413602
6.530;-1.375263;1.404528
6.540;-1.399528;1.395557
6.550;-1.421786;1.387005
6.560;-1.440717;1.379221
6.570;-1.455437;1.372525
6.580;-1.465739;1.367166
6.590;-1.472153;1.363308
6.600;-1.475770;1.361056
6.610;-1.477880;1.360514
6.620;-1.479535;1.361867
6.630;-1.481200;1.365441
6.640;-1.482617;1.371646
6.650;-1.482907;1.380805
6.660;-1.480879;1.392921
6.670;-1.475397;1.407545
6.680;-1.465676;1.423800
6.690;-1.451367;1.440581
6.700;-1.432480;1.456836
6.710;-1.409189;1.471832
6.720;-1.381705;1.485290
6.730;-1.350280;1.497366
6.740;-1.315361;1.508480
6.750;-1.277824;1.519088
6.760;-1.239144;1.529460
6.770;-1.201387;1.539567
6.780;-1.166996;1.549088
6.790;-1.138380;1.557545
6.800;-1.117431;1.564479
6.810;-1.105106;1.569613
6.820;-1.101223;1.572936
6.830;-1.104517;1.574686
6.840;-1.112946;1.575240
6.850;-1.124124;1.574959
6.860;-1.135794;1.574065
6.870;-1.146245;1.572621
6.880;-1.154576;1.570612
6.890;-1.160749;1.568080
6.900;-1.165425;1.565255
6.910;-1.169639;1.562597
6.920;-1.174431;1.560736
6.930;-1.180577;1.560286
6.940;-1.188487;1.561594
6.950;-1.198248;1.564520
6.960;-1.209751;1.568378
6.970;-1.222793;1.572103
6.980;-1.237132;1.574614
6.990;-1.252460;1.575204
7.000;-1.268313;1.573811
7.010;-1.283981;1.571009
7.020;-1.298477;1.567745
7.030;-1.310591;1.564961
7.040;-1.319057;1.563273
7.050;-1.322769;1.562845
7.060;-1.321006;1.563455
7.070;-1.313579;1.564703
7.080;-1.300867;1.566243
7.090;-1.283751;1.567957
7.100;-1.263494;1.569977
7.110;-1.241603;1.572555
7.120;-1.219700;1.575846
7.130;-1.199377;1.579754
7.140;-1.182059;1.583950
7.150;-1.168865;1.588055
7.160;-1.160487;1.591888
7.170;-1.157107;1.595616
7.180;-1.158362;1.599712
7.190;-1.163374;1.604724
7.200;-1.170875;1.610989
7.210;-1.179440;1.618424
7.220;-1.187776;1.626506
7.230;-1.194991;1.634458
7.240;-1.200747;1.641547
7.250;-1.205249;1.647355
7.260;-1.209077;1.651908
7.270;-1.212942;1.655628
7.280;-1.217445;1.659148
7.290;-1.222918;1.663063
7.300;-1.229372;1.667691
7.310;-1.236547;1.672922
7.320;-1.244052;1.678213
7.330;-1.251557;1.682733
7.340;-1.258987;1.685606
7.350;-1.266650;1.686147
7.360;-1.275239;1.684038
7.370;-1.285702;1.679397
7.380;-1.299029;1.672721
7.390;-1.315977;1.664690
7.400;-1.336801;1.655923
7.410;-1.361053;1.646771
7.420;-1.387598;1.637289
7.430;-1.414884;1.627368
7.440;-1.441416;1.616938
7.450;-1.466219;1.606123
7.460;-1.489061;1.595275
7.470;-1.510316;1.584904
7.480;-1.530533;1.575542
7.490;-1.549936;1.567619
7.500;-1.568110;1.561387
7.510;-1.584022;1.556945
7.520;-1.596360;1.554296
7.530;-1.604038;1.553422
7.540;-1.606660;1.554296
7.550;-1.604763;1.556856
7.560;-1.599749;1.560962
7.570;-1.593522;1.566388
7.580;-1.587914;1.572854
7.590;-1.584109;1.580076
7.600;-1.582259;1.587815
7.610;-1.581468;1.595925
7.620;-1.580170;1.604373
7.630;-1.576739;1.613210
7.640;-1.570090;1.622493
7.650;-1.560032;1.632190
7.660;-1.547265;1.642147
7.670;-1.533073;1.652109
7.680;-1.518934;1.661820
7.690;-1.506198;1.671111
7.700;-1.495950;1.679940
7.710;-1.488972;1.688336
7.720;-1.485724;1.696297
7.730;-1.486292;1.703691
7.740;-1.490303;1.710234
7.750;-1.496898;1.715536
7.760;-1.504805;1.719189
7.770;-1.512524;1.720840
7.780;-1.518582;1.720255
7.790;-1.521787;1.717359
7.800;-1.521395;1.712259
7.810;-1.517171;1.705235
7.820;-1.509357;1.696688
7.830;-1.498604;1.687063
7.840;-1.485888;1.676746
7.850;-1.472422;1.665995
7.860;-1.459520;1.654898
7.870;-1.448437;1.643403
7.880;-1.440205;1.631407
7.890;-1.435472;1.618888
7.900;-1.434394;1.606013
7.910;-1.436617;1.593116
7.920;-1.441362;1.580560
7.930;-1.447620;1.568520
7.940;-1.454382;1.556861
7.950;-1.460845;1.545178
7.960;-1.466536;1.532999
7.970;-1.471336;1.520028
7.980;-1.475443;1.506296
