Time[s];COPx[cm];COPy[cm]
0.010;-0.815745;1.434880
0.020;-0.794920;1.450692
0.030;-0.775409;1.465663
0.040;-0.758269;1.479340
0.050;-0.744047;1.491814
0.060;-0.732668;1.503641
0.070;-0.723479;1.515550
0.080;-0.715435;1.528069
0.090;-0.707403;1.541251
0.100;-0.698486;1.554628
0.110;-0.688274;1.567405
0.120;-0.676943;1.578793
0.130;-0.665186;1.588313
0.140;-0.654003;1.595933
0.150;-0.644439;1.601974
0.160;-0.637348;1.606867
0.170;-0.633232;1.610901
0.180;-0.632176;1.614093
0.190;-0.633901;1.616230
0.200;-0.637897;1.617022
0.210;-0.643616;1.616281
0.220;-0.650642;1.614042
0.230;-0.658769;1.610569
0.240;-0.667971;1.606233
0.250;-0.678303;1.601328
0.260;-0.689837;1.595917
0.270;-0.702643;1.589791
0.280;-0.716842;1.582523
0.290;-0.732655;1.573577
0.300;-0.750399;1.562433
0.310;-0.770410;1.548680
0.320;-0.792959;1.532088
0.330;-0.818182;1.512639
0.340;-0.846071;1.490542
0.350;-0.876502;1.466230
0.360;-0.909284;1.440362
0.370;-0.944219;1.413786
0.380;-0.981126;1.387448
0.390;-1.019824;1.362231
0.400;-1.060054;1.338813
0.410;-1.101427;1.317594
0.420;-1.143415;1.298740
0.430;-1.185447;1.282263
0.440;-1.227038;1.268100
0.450;-1.267913;1.256145
0.460;-1.308072;1.246249
0.470;-1.347771;1.238189
0.480;-1.387440;1.231667
0.490;-1.427569;1.226314
0.500;-1.468606;1.221751
0.510;-1.510880;1.217654
0.520;-1.554542;1.213827
0.530;-1.599509;1.210253
0.540;-1.645400;1.207081
0.550;-1.691536;1.204576
0.560;-1.737007;1.203008
0.570;-1.780829;1.202540
0.580;-1.822162;1.203143
0.590;-1.860505;1.204594
0.600;-1.895801;1.206553
0.610;-1.928399;1.208673
0.620;-1.958883;1.210673
0.630;-1.987877;1.212340
0.640;-2.015882;1.213502
0.650;-2.043188;1.214024
0.660;-2.069827;1.213859
0.670;-2.095535;1.213133
0.680;-2.119744;1.212179
0.690;-2.141618;1.211506
0.700;-2.160172;1.211661
0.710;-2.174452;1.213071
0.720;-2.183739;1.215925
0.730;-2.187685;1.220143
0.740;-2.186311;1.225453
0.750;-2.179861;1.231501
0.760;-2.168590;1.237979
0.770;-2.152603;1.244704
0.780;-2.131837;1.251639
0.790;-2.106193;1.258849
0.800;-2.075750;1.266423
0.810;-2.040964;1.274376
0.820;-2.002754;1.282556
0.830;-1.962434;1.290596
0.840;-1.921540;1.297964
0.850;-1.881617;1.304139
0.860;-1.844018;1.308809
0.870;-1.809723;1.311990
0.880;-1.779173;1.313980
0.890;-1.752154;1.315192
0.900;-1.727774;1.315957
0.910;-1.704626;1.316404
0.920;-1.681134;1.316446
0.930;-1.656007;1.315856
0.940;-1.628651;1.314393
0.950;-1.599369;1.311899
0.960;-1.569278;1.308362
0.970;-1.539975;1.303909
0.980;-1.513097;1.298788
0.990;-1.489944;1.293313
1.000;-1.471276;1.287787
1.010;-1.457308;1.282417
1.020;-1.447853;1.277260
1.030;-1.442501;1.272216
1.040;-1.440751;1.267089
1.050;-1.442054;1.261674
1.060;-1.445786;1.255844
1.070;-1.451190;1.249592
1.080;-1.457351;1.243002
1.090;-1.463272;1.236189
1.100;-1.468046;1.229229
1.110;-1.471063;1.222123
1.120;-1.472165;1.214808
1.130;-1.471717;1.207224
1.140;-1.470571;1.199400
1.150;-1.469951;1.191512
1.160;-1.471273;1.183861
1.170;-1.475918;1.176774
1.180;-1.484994;1.170489
1.190;-1.499117;1.165071
1.200;-1.518276;1.160425
1.210;-1.541818;1.156343
1.220;-1.568584;1.152588
1.230;-1.597146;1.148947
1.240;-1.626095;1.145254
1.250;-1.654288;1.141356
1.260;-1.681015;1.137082
1.270;-1.706038;1.132240
1.280;-1.729546;1.126672
1.290;-1.752036;1.120321
1.300;-1.774170;1.113262
1.310;-1.796617;1.105688
1.320;-1.819923;1.097864
1.330;-1.844424;1.090103
1.340;-1.870246;1.082758
1.350;-1.897382;1.076201
1.360;-1.925803;1.070777
1.370;-1.955529;1.066742
1.380;-1.986620;1.064196
1.390;-2.019104;1.063047
1.400;-2.052867;1.063006
1.410;-2.087570;1.063628
1.420;-2.122661;1.064382
1.430;-2.157462;1.064737
1.440;-2.191312;1.064271
1.450;-2.223680;1.062794
1.460;-2.254197;1.060460
1.470;-2.282611;1.057790
1.480;-2.308738;1.055530
1.490;-2.332437;1.054366
1.500;-2.353631;1.054624
1.510;-2.372327;1.056110
1.520;-2.388608;1.058175
1.530;-2.402567;1.059964
1.540;-2.414219;1.060709
1.550;-2.423420;1.059954
1.560;-2.429859;1.057624
1.570;-2.433119;1.053985
1.580;-2.432770;1.049537
1.590;-2.428466;1.044869
1.600;-2.420009;1.040516
1.610;-2.407369;1.036833
1.620;-2.390651;1.033929
1.630;-2.370029;1.031702
1.640;-2.345647;1.029979
1.650;-2.317558;1.028677
1.660;-2.285701;1.027904
1.670;-2.249955;1.027912
1.680;-2.210235;1.028928
1.690;-2.166592;1.030939
1.700;-2.119262;1.033553
1.710;-2.068634;1.036003
1.720;-2.015134;1.037305
1.730;-1.959093;1.036526
1.740;-1.900701;1.033052
1.750;-1.840097;1.026755
1.760;-1.777563;1.017952
1.770;-1.713713;1.007206
1.780;-1.649592;0.995073
1.790;-1.586630;0.981936
1.800;-1.526502;0.967985
1.810;-1.470923;0.953312
1.820;-1.421425;0.938063
1.830;-1.379145;0.922556
1.840;-1.344665;0.907288
1.850;-1.317929;0.892819
1.860;-1.298270;0.879585
1.870;-1.284542;0.867762
1.880;-1.275327;0.857258
1.890;-1.269175;0.847843
1.900;-1.264830;0.839325
1.910;-1.261404;0.831652
1.920;-1.258456;0.824880
1.930;-1.255962;0.819059
1.940;-1.254161;0.814115
1.950;-1.253375;0.809809
1.960;-1.253867;0.805817
1.970;-1.255810;0.801867
1.980;-1.259337;0.797860
1.990;-1.264621;0.793935
2.000;-1.271929;0.790475
2.010;-1.281610;0.788066
2.020;-1.294014;0.787364
2.030;-1.309362;0.788866
2.040;-1.327644;0.792651
2.050;-1.348579;0.798240
2.060;-1.371649;0.804662
2.070;-1.396155;0.810714
2.080;-1.421282;0.815288
2.090;-1.446188;0.817665
2.100;-1.470124;0.817683
2.110;-1.492598;0.815740
2.120;-1.513501;0.812664
2.130;-1.533168;0.809488
2.140;-1.552311;0.807220
2.150;-1.571866;0.806639
2.160;-1.592810;0.808147
2.170;-1.616006;0.811674
2.180;-1.642109;0.816678
2.190;-1.671522;0.822276
2.200;-1.704365;0.827515
2.210;-1.740429;0.831677
2.220;-1.779133;0.834504
2.230;-1.819467;0.836265
2.240;-1.859948;0.837634
2.250;-1.898654;0.839468
2.260;-1.933403;0.842553
2.270;-1.962120;0.847380
2.280;-1.983280;0.854018
2.290;-1.996272;0.862093
2.300;-2.001535;0.870895
2.310;-2.000403;0.879579
2.320;-1.994734;0.887408
2.330;-1.986451;0.893925
2.340;-1.977137;0.899009
2.350;-1.967786;0.902816
2.360;-1.958761;0.905661
2.370;-1.949917;0.907890
2.380;-1.940835;0.909751
2.390;-1.931081;0.911287
2.400;-1.920411;0.912276
2.410;-1.908837;0.912284
2.420;-1.896530;0.910826
2.430;-1.883615;0.907599
2.440;-1.869975;0.902660
2.450;-1.855174;0.896460
2.460;-1.838536;0.889690
2.470;-1.819313;0.883035
2.480;-1.796890;0.876996
2.490;-1.770960;0.871870
2.500;-1.741621;0.867887
2.510;-1.709387;0.865356
2.520;-1.675094;0.864687
2.530;-1.639736;0.866241
2.540;-1.604264;0.870084
2.550;-1.569421;0.875794
2.560;-1.535638;0.882471
2.570;-1.503036;0.888969
2.580;-1.471506;0.894259
2.590;-1.440842;0.897781
2.600;-1.410899;0.899644
2.610;-1.381712;0.900574
2.620;-1.353550;0.901632
2.630;-1.326847;0.903828
2.640;-1.302032;0.907805
2.650;-1.279348;0.913699
2.660;-1.258743;0.921191
2.670;-1.239878;0.929671
2.680;-1.222256;0.938441
2.690;-1.205386;0.946893
2.700;-1.188968;0.954624
2.710;-1.173002;0.961497
2.720;-1.157839;0.967651
2.730;-1.144115;0.973469
2.740;-1.132620;0.979466
2.750;-1.124140;0.986124
2.760;-1.119325;0.993733
2.770;-1.118593;1.002285
2.780;-1.122057;1.011479
2.790;-1.129470;1.020804
2.800;-1.140221;1.029675
2.810;-1.153393;1.037596
2.820;-1.167885;1.044314
2.830;-1.182550;1.049925
2.840;-1.196320;1.054849
2.850;-1.208310;1.059660
2.860;-1.217923;1.064849
2.870;-1.224957;1.070631
2.880;-1.229662;1.076909
2.890;-1.232707;1.083380
2.900;-1.235014;1.089715
2.910;-1.237562;1.095685
2.920;-1.241197;1.101200
2.930;-1.246544;1.106273
2.940;-1.253982;1.110985
2.950;-1.263696;1.115463
2.960;-1.275710;1.119871
2.970;-1.289901;1.124380
2.980;-1.305994;1.129128
2.990;-1.323592;1.134195
3.000;-1.342263;1.139588
3.010;-1.361652;1.145220
3.020;-1.381590;1.150883
3.030;-1.402126;1.156275
3.040;-1.423471;1.161070
3.050;-1.445886;1.164997
3.060;-1.469536;1.167892
3.070;-1.494337;1.169697
3.080;-1.519867;1.170471
3.090;-1.545373;1.170418
3.100;-1.569904;1.169909
3.110;-1.592522;1.169446
3.120;-1.612476;1.169544
3.130;-1.629267;1.170596
3.140;-1.642579;1.172798
3.150;-1.652177;1.176149
3.160;-1.657867;1.180523
3.170;-1.659559;1.185738
3.180;-1.657416;1.191563
3.190;-1.651965;1.197684
3.200;-1.644099;1.203677
3.210;-1.634916;1.209053
3.220;-1.625456;1.213370
3.230;-1.616450;1.216354
3.240;-1.608222;1.217964
3.250;-1.600775;1.218358
3.260;-1.593998;1.217811
3.270;-1.587859;1.216610
3.280;-1.582472;1.215006
3.290;-1.578034;1.213201
3.300;-1.574677;1.211351
3.310;-1.572353;1.209567
3.320;-1.570757;1.207898
3.330;-1.569339;1.206323
3.340;-1.567379;1.204776
3.350;-1.564166;1.203218
3.360;-1.559237;1.201735
3.370;-1.552573;1.200593
3.380;-1.544657;1.200191
3.390;-1.536306;1.200929
3.400;-1.528397;1.203039
3.410;-1.521575;1.206469
3.420;-1.516083;1.210876
3.430;-1.511737;1.215721
3.440;-1.508031;1.220426
3.450;-1.504308;1.224515
3.460;-1.499948;1.227718
3.470;-1.494530;1.230012
3.480;-1.487933;1.231599
3.490;-1.480367;1.232818
3.500;-1.472295;1.234027
3.510;-1.464278;1.235510
3.520;-1.456774;1.237436
3.530;-1.449998;1.239853
3.540;-1.443886;1.242719
3.550;-1.438183;1.245935
3.560;-1.432570;1.249367
3.570;-1.426769;1.252854
3.580;-1.420568;1.256198
3.590;-1.413790;1.259155
3.600;-1.406238;1.261454
3.610;-1.397680;1.262855
3.620;-1.387886;1.263225
3.630;-1.376719;1.262617
3.640;-1.364241;1.261300
3.650;-1.350778;1.259729
3.660;-1.336906;1.258433
3.670;-1.323364;1.257879
3.680;-1.310903;1.258354
3.690;-1.300142;1.259931
3.700;-1.291431;1.262490
3.710;-1.284764;1.265786
3.720;-1.279771;1.269519
3.730;-1.275790;1.273391
3.740;-1.272041;1.277149
3.750;-1.267843;1.280613
3.760;-1.262803;1.283696
3.770;-1.256937;1.286384
3.780;-1.250661;1.288702
3.790;-1.244675;1.290665
3.800;-1.239788;1.292245
3.810;-1.236748;1.293371
3.820;-1.236106;1.293941
3.830;-1.238141;1.293839
3.840;-1.242846;1.292954
3.850;-1.249973;1.291218
3.860;-1.259123;1.288660
3.870;-1.269860;1.285465
3.880;-1.281830;1.282000
3.890;-1.294833;1.278792
3.900;-1.308843;1.276409
3.910;-1.323907;1.275281
3.920;-1.339983;1.275502
3.930;-1.356758;1.276754
3.940;-1.373545;1.278396
3.950;-1.389345;1.279689
3.960;-1.403047;1.280025
3.970;-1.413691;1.279067
3.980;-1.420679;1.276760
3.990;-1.423878;1.273270
4.000;-1.423598;1.268896
4.010;-1.420494;1.263989
4.020;-1.415418;1.258887
4.030;-1.409264;1.253858
4.040;-1.402812;1.249072
4.050;-1.396626;1.244575
4.060;-1.391010;1.240268
4.070;-1.386048;1.235876
4.080;-1.381715;1.230968
4.090;-1.378010;1.225082
4.100;-1.375025;1.217916
4.110;-1.372952;1.209507
4.120;-1.372012;1.200275
4.130;-1.372358;1.190919
4.140;-1.373980;1.182216
4.150;-1.376663;1.174800
4.160;-1.380049;1.169025
4.170;-1.383772;1.164959
4.180;-1.387634;1.162471
4.190;-1.391706;1.161306
4.200;-1.396341;1.161093
4.210;-1.402075;1.161303
4.220;-1.409467;1.161258
4.230;-1.418932;1.160252
4.240;-1.430621;1.157745
4.250;-1.444378;1.153519
4.260;-1.459796;1.147731
4.270;-1.476341;1.140855
4.280;-1.493523;1.133563
4.290;-1.511042;1.126592
4.300;-1.528854;1.120598
4.310;-1.547138;1.116049
4.320;-1.566163;1.113146
4.330;-1.586122;1.111802
4.340;-1.607018;1.111682
4.350;-1.628644;1.112306
4.360;-1.650676;1.113189
4.370;-1.672825;1.113961
4.380;-1.694983;1.114445
4.390;-1.717273;1.114638
4.400;-1.739978;1.114647
4.410;-1.763359;1.114598
4.420;-1.787467;1.114590
4.430;-1.812045;1.114699
4.440;-1.836560;1.115007
4.450;-1.860327;1.115626
4.460;-1.882659;1.116685
4.470;-1.902991;1.118281
4.480;-1.920951;1.120409
4.490;-1.936369;1.122912
4.500;-1.949246;1.125486
4.510;-1.959683;1.127756
4.520;-1.967836;1.129384
4.530;-1.973870;1.130166
4.540;-1.977940;1.130084
4.550;-1.980145;1.129315
4.560;-1.980487;1.128217
4.570;-1.978858;1.127289
4.580;-1.975093;1.127083
4.590;-1.969071;1.128095
4.600;-1.960805;1.130639
4.610;-1.950465;1.134755
4.620;-1.938310;1.140146
4.630;-1.924580;1.146207
4.640;-1.909434;1.152140
4.650;-1.892983;1.157182
4.660;-1.875400;1.160859
4.670;-1.857021;1.163182
4.680;-1.838351;1.164686
4.690;-1.819930;1.166259
4.700;-1.802147;1.168812
4.710;-1.785076;1.172922
4.720;-1.768442;1.178591
4.730;-1.751711;1.185224
4.740;-1.734263;1.191820
4.750;-1.715575;1.197303
4.760;-1.695348;1.200855
4.770;-1.673531;1.202150
4.780;-1.650280;1.201412
4.790;-1.625873;1.199288
4.800;-1.600649;1.196587
4.810;-1.574969;1.193997
4.820;-1.549228;1.191875
4.830;-1.523927;1.190202
4.840;-1.499767;1.188694
4.850;-1.477712;1.186989
4.860;-1.458940;1.184821
4.870;-1.444650;1.182084
4.880;-1.435759;1.178823
4.890;-1.432616;1.175165
4.900;-1.434824;1.171262
4.910;-1.441276;1.167244
4.920;-1.450376;1.163201
4.930;-1.460413;1.159196
4.940;-1.469949;1.155279
4.950;-1.478120;1.151472
4.960;-1.484756;1.147743
4.970;-1.490312;1.144001
4.980;-1.495663;1.140183
4.990;-1.501869;1.136385
5.000;-1.509961;1.132941
5.010;-1.520774;1.130363
5.020;-1.534820;1.129131
5.030;-1.552230;1.129430
5.040;-1.572785;1.131004
5.050;-1.596040;1.133210
5.060;-1.621510;1.135278
5.070;-1.648861;1.136626
5.080;-1.678060;1.137071
5.090;-1.709449;1.136840
5.100;-1.743700;1.136402
5.110;-1.781642;1.136233
5.120;-1.823963;1.136641
5.130;-1.870878;1.137697
5.140;-1.921860;1.139292
5.150;-1.975581;1.141248
5.160;-2.030072;1.143428
5.170;-2.083077;1.145792
5.180;-2.132444;1.148380
5.190;-2.176452;1.151278
5.200;-2.213974;1.154579
5.210;-2.244507;1.158352
5.220;-2.268101;1.162593
5.230;-2.285245;1.167169
5.240;-2.296726;1.171790
5.250;-2.303499;1.176055
5.260;-2.306541;1.179604
5.270;-2.306728;1.182299
5.280;-2.304723;1.184312
5.290;-2.300903;1.186055
5.300;-2.295328;1.187966
5.310;-2.287805;1.190273
5.320;-2.278024;1.192854
5.330;-2.265765;1.195259
5.340;-2.251077;1.196864
5.350;-2.234362;1.197122
5.360;-2.216285;1.195806
5.370;-2.197569;1.193154
5.380;-2.178757;1.189849
5.390;-2.160062;1.186836
5.400;-2.141339;1.185023
5.410;-2.122184;1.184990
5.420;-2.102109;1.186812
5.430;-2.080757;1.190064
5.440;-2.058086;1.193997
5.450;-2.034458;1.197816
5.460;-2.010591;1.200931
5.470;-1.987389;1.203078
5.480;-1.965713;1.204281
5.490;-1.946188;1.204754
5.500;-1.929102;1.204811
5.510;-1.914421;1.204832
5.520;-1.901880;1.205228
5.530;-1.891102;1.206363
5.540;-1.881713;1.208443
5.550;-1.873431;1.211425
5.560;-1.866124;1.215025
5.570;-1.859817;1.218828
5.580;-1.854672;1.222453
5.590;-1.850940;1.225674
5.600;-1.848928;1.228436
5.610;-1.848976;1.230801
5.620;-1.851410;1.232892
5.630;-1.856459;1.234872
5.640;-1.864139;1.236955
5.650;-1.874169;1.239417
5.660;-1.885971;1.242573
5.670;-1.898762;1.246688
5.680;-1.911719;1.251854
5.690;-1.924167;1.257872
5.700;-1.935749;1.264236
5.710;-1.946498;1.270260
5.720;-1.956783;1.275327
5.730;-1.967129;1.279143
5.740;-1.978020;1.281875
5.750;-1.989775;1.284081
5.760;-2.002533;1.286489
5.770;-2.016321;1.289736
5.780;-2.031144;1.294166
5.790;-2.047036;1.299741
5.800;-2.064071;1.306052
5.810;-2.082321;1.312434
5.820;-2.101789;1.318132
5.830;-2.122319;1.322495
5.840;-2.143527;1.325166
5.850;-2.164804;1.326210
5.860;-2.185417;1.326147
5.870;-2.204705;1.325822
5.880;-2.222284;1.326156
5.890;-2.238178;1.327840
5.900;-2.252773;1.331116
5.910;-2.266621;1.335716
5.920;-2.280162;1.341005
5.930;-2.293493;1.346247
5.940;-2.306287;1.350884
5.950;-2.317897;1.354689
5.960;-2.327615;1.357767
5.970;-2.334966;1.360420
5.980;-2.339933;1.362969
5.990;-2.342993;1.365590
6.000;-2.344956;1.368239
6.010;-2.346668;1.370668
6.020;-2.348711;1.372549
6.030;-2.351238;1.373659
6.040;-2.353988;1.374026
6.050;-2.356439;1.373960
6.060;-2.357984;1.373914
6.070;-2.358036;1.374243
6.080;-2.356072;1.374981
6.090;-2.351651;1.375766
6.100;-2.344472;1.375956
6.110;-2.334449;1.374883
6.120;-2.321802;1.372124
6.130;-2.307061;1.367679
6.140;-2.291000;1.361984
6.150;-2.274466;1.355780
6.160;-2.258193;1.349885
6.170;-2.242635;1.344942
6.180;-2.227887;1.341237
6.190;-2.213712;1.338624
6.200;-2.199649;1.336602
6.210;-2.185174;1.334500
6.220;-2.169830;1.331725
6.230;-2.153309;1.327970
6.240;-2.135496;1.323319
6.250;-2.116492;1.318173
6.260;-2.096621;1.313043
6.270;-2.076392;1.308302
6.280;-2.056406;1.304009
6.290;-2.037223;1.299864
6.300;-2.019272;1.295297
6.310;-2.002820;1.289680
6.320;-1.988009;1.282590
6.330;-1.974932;1.274020
6.340;-1.963710;1.264401
6.350;-1.954542;1.254411
6.360;-1.947727;1.244672
6.370;-1.943647;1.235511
6.380;-1.942691;1.226913
6.390;-1.945119;1.218669
6.400;-1.950911;1.210590
6.410;-1.959688;1.202666
6.420;-1.970745;1.195103
6.430;-1.983221;1.188254
6.440;-1.996336;1.182486
6.450;-2.009607;1.178042
6.460;-2.022960;1.174929
6.470;-2.036699;1.172881
6.480;-2.051383;1.171412
6.490;-2.067628;1.169911
6.500;-2.085921;1.167791
6.510;-2.106475;1.164635
6.520;-2.129197;1.160344
6.530;-2.153741;1.155219
6.540;-2.179618;1.149922
6.550;-2.206283;1.145286
6.560;-2.233174;1.142049
6.570;-2.259687;1.140632
6.580;-2.285154;1.141048
6.590;-2.308863;1.142959
6.600;-2.330141;1.145819
6.610;-2.348461;1.149020
6.620;-2.363534;1.152000
6.630;-2.375363;1.154294
6.640;-2.384245;1.155572
6.650;-2.390693;1.155660
6.660;-2.395281;1.154567
6.670;-2.398466;1.152491
6.680;-2.400495;1.149785
6.690;-2.401459;1.146908
6.700;-2.401462;1.144347
6.710;-2.400788;1.142524
6.720;-2.399969;1.141682
6.730;-2.399702;1.141764
6.740;-2.400680;1.142385
6.750;-2.403401;1.142940
6.760;-2.408040;1.142838
6.770;-2.414428;1.141746
6.780;-2.422128;1.139708
6.790;-2.430568;1.137064
6.800;-2.439156;1.134229
6.810;-2.447364;1.131463
6.820;-2.454775;1.128747
6.830;-2.461092;1.125838
6.840;-2.466110;1.122465
6.850;-2.469646;1.118570
6.860;-2.471460;1.114437
6.870;-2.471232;1.110651
6.880;-2.468643;1.107895
6.890;-2.463562;1.106694
6.900;-2.456234;1.107222
6.910;-2.447369;1.109245
6.920;-2.438039;1.112198
6.930;-2.429396;1.115369
6.940;-2.422292;1.118083
6.950;-2.416966;1.119849
6.960;-2.412896;1.120447
6.970;-2.408866;1.119975
6.980;-2.403210;1.118838
6.990;-2.394196;1.117632
7.000;-2.380431;1.116925
7.010;-2.361206;1.117026
7.020;-2.336669;1.117824
7.030;-2.307775;1.118796
7.040;-2.275987;1.119171
7.050;-2.242825;1.118183
7.060;-2.209427;1.115324
7.070;-2.176292;1.110514
7.080;-2.143318;1.104141
7.090;-2.110097;1.096947
7.100;-2.076312;1.089809
7.110;-2.042055;1.083452
7.120;-2.007932;1.078223
7.130;-1.974932;1.074001
7.140;-1.944118;1.070285
7.150;-1.916272;1.066404
7.160;-1.891646;1.061767
7.170;-1.869906;1.056055
7.180;-1.850288;1.049318
7.190;-1.831912;1.041936
7.200;-1.814121;1.034456
7.210;-1.796751;1.027373
7.220;-1.780242;1.020951
7.230;-1.765572;1.015192
7.240;-1.753993;1.009944
7.250;-1.746673;1.005074
7.260;-1.744341;1.000598
7.270;-1.747086;0.996709
7.280;-1.754353;0.993684
7.290;-1.765104;0.991718
7.300;-1.778091;0.990768
7.310;-1.792156;0.990488
7.320;-1.806457;0.990276
7.330;-1.820520;0.989422
7.340;-1.834110;0.987286
7.350;-1.847004;0.983454
7.360;-1.858836;0.977829
7.370;-1.869081;0.970629
7.380;-1.877185;0.962293
7.390;-1.882761;0.953331
7.400;-1.885728;0.944167
7.410;-1.886354;0.935075
7.420;-1.885141;0.926212
7.430;-1.882635;0.917748
7.440;-1.879245;0.909963
7.450;-1.875169;0.903247
7.460;-1.870473;0.897973
7.470;-1.865243;0.894359
7.480;-1.859718;0.892386
7.490;-1.854303;0.891819
7.500;-1.849472;0.892285
7.510;-1.845597;0.893369
7.520;-1.842803;0.894671
7.530;-1.840915;0.895841
7.540;-1.839500;0.896586
7.550;-1.837999;0.896704
7.560;-1.835881;0.896127
7.570;-1.832796;0.894953
7.580;-1.828685;0.893450
7.590;-1.823804;0.891995
7.600;-1.818648;0.890988
7.610;-1.813794;0.890748
7.620;-1.809720;0.891437
7.630;-1.806671;0.893040
7.640;-1.804632;0.895411
7.650;-1.803406;0.898343
7.660;-1.802751;0.901633
7.670;-1.802510;0.905091
7.680;-1.802676;0.908523
7.690;-1.803358;0.911704
7.700;-1.804691;0.914401
7.710;-1.806769;0.916446
7.720;-1.809640;0.917835
7.730;-1.813338;0.918772
7.740;-1.817902;0.919637
7.750;-1.823341;0.920866
7.760;-1.829576;0.922788
7.770;-1.836378;0.925509
7.780;-1.843370;0.928893
7.790;-1.850106;0.932651
7.800;-1.856215;0.936466
7.810;-1.861558;0.940090
7.820;-1.866330;0.943390
7.830;-1.871042;0.946355
7.840;-1.876380;0.949090
7.850;-1.882999;0.951792
7.860;-1.891322;0.954700
7.870;-1.901436;0.958018
7.880;-1.913095;0.961830
7.890;-1.925808;0.966030
7.900;-1.938957;0.970299
7.910;-1.951899;0.974156
7.920;-1.964005;0.977084
7.930;-1.974634;0.978699
7.940;-1.983101;0.978896
7.950;-1.988701;0.977927
7.960;-1.990813;0.976379
7.970;-1.989044;0.975058
7.980;-1.983332;0.974792
