Time[s];COPx[cm];COPy[cm]
0.010;-1.463945;0.992497
0.020;-1.472952;0.989509
0.030;-1.482574;0.987181
0.040;-1.493301;0.985899
0.050;-1.505429;0.985589
0.060;-1.519028;0.985855
0.070;-1.533944;0.986314
0.080;-1.549823;0.986905
0.090;-1.566166;0.987987
0.100;-1.582433;0.990177
0.110;-1.598160;0.994011
0.120;-1.613060;0.999652
0.130;-1.627043;1.006747
0.140;-1.640186;1.014516
0.150;-1.652643;1.022026
0.160;-1.664582;1.028536
0.170;-1.676138;1.033773
0.180;-1.687405;1.038019
0.190;-1.698455;1.041966
0.200;-1.709357;1.046435
0.210;-1.720208;1.052101
0.220;-1.731152;1.059345
0.230;-1.742379;1.068247
0.240;-1.754067;1.078659
0.250;-1.766316;1.090261
0.260;-1.779094;1.102595
0.270;-1.792246;1.115099
0.280;-1.805547;1.127208
0.290;-1.818793;1.138518
0.300;-1.831888;1.148924
0.310;-1.844893;1.158638
0.320;-1.857997;1.168049
0.330;-1.871393;1.177498
0.340;-1.885134;1.187116
0.350;-1.899065;1.196795
0.360;-1.912864;1.206285
0.370;-1.926193;1.215312
0.380;-1.938847;1.223645
0.390;-1.950838;1.231084
0.400;-1.962340;1.237399
0.410;-1.973526;1.242283
0.420;-1.984384;1.245374
0.430;-1.994611;1.246327
0.440;-2.003652;1.244913
0.450;-2.010856;1.241094
0.460;-2.015692;1.235050
0.470;-2.017924;1.227144
0.480;-2.017714;1.217849
0.490;-2.015612;1.207676
0.500;-2.012446;1.197122
0.510;-2.009102;1.186624
0.520;-2.006304;1.176518
0.530;-2.004469;1.166968
0.540;-2.003697;1.157887
0.550;-2.003863;1.148898
0.560;-2.004726;1.139374
0.570;-2.006003;1.128606
0.580;-2.007402;1.116053
0.590;-2.008653;1.101563
0.600;-2.009571;1.085449
0.610;-2.010114;1.068379
0.620;-2.010435;1.051139
0.630;-2.010856;1.034395
0.640;-2.011794;1.018544
0.650;-2.013638;1.003659
0.660;-2.016600;0.989517
0.670;-2.020602;0.975666
0.680;-2.025241;0.961535
0.690;-2.029882;0.946591
0.700;-2.033837;0.930517
0.710;-2.036550;0.913343
0.720;-2.037691;0.895480
0.730;-2.037149;0.877604
0.740;-2.034961;0.860448
0.750;-2.031252;0.844606
0.760;-2.026204;0.830407
0.770;-2.020072;0.817916
0.780;-2.013196;0.807020
0.790;-2.006001;0.797553
0.800;-1.998940;0.789408
0.810;-1.992396;0.782565
0.820;-1.986595;0.777048
0.830;-1.981586;0.772858
0.840;-1.977328;0.769929
0.850;-1.973799;0.768102
0.860;-1.971064;0.767122
0.870;-1.969258;0.766655
0.880;-1.968512;0.766354
0.890;-1.968860;0.765976
0.900;-1.970159;0.765485
0.910;-1.972058;0.765087
0.920;-1.974026;0.765143
0.930;-1.975472;0.765974
0.940;-1.975913;0.767685
0.950;-1.975138;0.770092
0.960;-1.973251;0.772843
0.970;-1.970603;0.775633
0.980;-1.967642;0.778376
0.990;-1.964751;0.781224
1.000;-1.962145;0.784463
1.010;-1.959828;0.788393
1.020;-1.957637;0.793252
1.030;-1.955342;0.799190
1.040;-1.952731;0.806273
1.050;-1.949668;0.814462
1.060;-1.946074;0.823595
1.070;-1.941896;0.833384
1.080;-1.937068;0.843468
1.090;-1.931513;0.853529
1.100;-1.925138;0.863426
1.110;-1.917848;0.873257
1.120;-1.909544;0.883323
1.130;-1.900161;0.893988
1.140;-1.889715;0.905517
1.150;-1.878331;0.917954
1.160;-1.866214;0.931100
1.170;-1.853575;0.944559
1.180;-1.840544;0.957827
1.190;-1.827151;0.970363
1.200;-1.813375;0.981631
1.210;-1.799250;0.991140
1.220;-1.784935;0.998502
1.230;-1.770717;1.003508
1.240;-1.756929;1.006207
1.250;-1.743878;1.006941
1.260;-1.731800;1.006284
1.270;-1.720869;1.004878
1.280;-1.711216;1.003247
1.290;-1.702945;1.001701
1.300;-1.696125;1.000352
1.310;-1.690780;0.999217
1.320;-1.686870;0.998283
1.330;-1.684285;0.997525
1.340;-1.682868;0.996844
1.350;-1.682451;0.996034
1.360;-1.682891;0.994790
1.370;-1.684096;0.992795
1.380;-1.686041;0.989820
1.390;-1.688753;0.985766
1.400;-1.692261;0.980609
1.410;-1.696544;0.974292
1.420;-1.701495;0.966666
1.430;-1.706941;0.957554
1.440;-1.712690;0.946902
1.450;-1.718582;0.934932
1.460;-1.724511;0.922188
1.470;-1.730428;0.909433
1.480;-1.736342;0.897439
1.490;-1.742363;0.886791
1.500;-1.748736;0.877776
1.510;-1.755832;0.870372
1.520;-1.764049;0.864320
1.530;-1.773650;0.859217
1.540;-1.784653;0.854642
1.550;-1.796802;0.850281
1.560;-1.809642;0.846049
1.570;-1.822639;0.842139
1.580;-1.835256;0.838958
1.590;-1.846988;0.836959
1.600;-1.857370;0.836443
1.610;-1.866018;0.837425
1.620;-1.872746;0.839607
1.630;-1.877676;0.842461
1.640;-1.881301;0.845343
1.650;-1.884413;0.847627
1.660;-1.887934;0.848833
1.670;-1.892673;0.848735
1.680;-1.899109;0.847406
1.690;-1.907263;0.845140
1.700;-1.916712;0.842280
1.710;-1.926718;0.839050
1.720;-1.936438;0.835515
1.730;-1.945138;0.831711
1.740;-1.952353;0.827851
1.750;-1.957961;0.824441
1.760;-1.962170;0.822205
1.770;-1.965422;0.821846
1.780;-1.968246;0.823790
1.790;-1.971101;0.828031
1.800;-1.974241;0.834148
1.810;-1.977641;0.841470
1.820;-1.981002;0.849302
1.830;-1.983836;0.857113
1.840;-1.985609;0.864609
1.850;-1.985885;0.871685
1.860;-1.984436;0.878310
1.870;-1.981272;0.884439
1.880;-1.976623;0.890004
1.890;-1.970854;0.894995
1.900;-1.964364;0.899534
1.910;-1.957473;0.903849
1.920;-1.950340;0.908136
1.930;-1.942926;0.912371
1.940;-1.935027;0.916223
1.950;-1.926373;0.919155
1.960;-1.916767;0.920701
1.970;-1.906211;0.920778
1.980;-1.894972;0.919872
1.990;-1.883537;0.918962
2.000;-1.872462;0.919197
2.010;-1.862179;0.921496
2.020;-1.852814;0.926223
2.030;-1.844121;0.933112
2.040;-1.835572;0.941427
2.050;-1.826559;0.950295
2.060;-1.816634;0.959037
2.070;-1.805668;0.967358
2.080;-1.793851;0.975326
2.090;-1.781562;0.983199
2.100;-1.769165;0.991212
2.110;-1.756861;0.999440
2.120;-1.744655;1.007765
2.130;-1.732437;1.015919
2.140;-1.720096;1.023598
2.150;-1.707581;1.030600
2.160;-1.694872;1.036952
2.170;-1.681893;1.042942
2.180;-1.668456;1.049029
2.190;-1.654306;1.055632
2.200;-1.639240;1.062930
2.210;-1.623242;1.070761
2.220;-1.606542;1.078714
2.230;-1.589558;1.086354
2.240;-1.572741;1.093467
2.250;-1.556390;1.100192
2.260;-1.540536;1.106985
2.270;-1.524965;1.114447
2.280;-1.509354;1.123088
2.290;-1.493451;1.133111
2.300;-1.477183;1.144287
2.310;-1.460681;1.155960
2.320;-1.444221;1.167206
2.330;-1.428143;1.177070
2.340;-1.412784;1.184816
2.350;-1.398423;1.190110
2.360;-1.385249;1.193090
2.370;-1.373359;1.194329
2.380;-1.362761;1.194688
2.390;-1.353393;1.195104
2.400;-1.345126;1.196390
2.410;-1.337771;1.199098
2.420;-1.331095;1.203460
2.430;-1.324854;1.209376
2.440;-1.318840;1.216457
2.450;-1.312914;1.224113
2.460;-1.307020;1.231714
2.470;-1.301163;1.238792
2.480;-1.295395;1.245191
2.490;-1.289809;1.251084
2.500;-1.284559;1.256809
2.510;-1.279872;1.262604
2.520;-1.276050;1.268389
2.530;-1.273433;1.273724
2.540;-1.272311;1.277971
2.550;-1.272826;1.280562
2.560;-1.274885;1.281254
2.570;-1.278149;1.280253
2.580;-1.282107;1.278179
2.590;-1.286212;1.275899
2.600;-1.290053;1.274291
2.610;-1.293486;1.274006
2.620;-1.296659;1.275308
2.630;-1.299895;1.278055
2.640;-1.303505;1.281807
2.650;-1.307606;1.286015
2.660;-1.312063;1.290182
2.670;-1.316536;1.293941
2.680;-1.320617;1.297053
2.690;-1.323979;1.299382
2.700;-1.326486;1.300900
2.710;-1.328250;1.301724
2.720;-1.329607;1.302132
2.730;-1.331013;1.302490
2.740;-1.332889;1.303112
2.750;-1.335471;1.304112
2.760;-1.338726;1.305363
2.770;-1.342381;1.306600
2.780;-1.346044;1.307630
2.790;-1.349374;1.308543
2.800;-1.352213;1.309774
2.810;-1.354645;1.311975
2.820;-1.356942;1.315736
2.830;-1.359452;1.321285
2.840;-1.362448;1.328301
2.850;-1.366046;1.335952
2.860;-1.370202;1.343130
2.870;-1.374775;1.348774
2.880;-1.379596;1.352119
2.890;-1.384499;1.352820
2.900;-1.389318;1.350960
2.910;-1.393907;1.347001
2.920;-1.398168;1.341672
2.930;-1.402087;1.335808
2.940;-1.405748;1.330127
2.950;-1.409330;1.325031
2.960;-1.413064;1.320513
2.970;-1.417155;1.316232
2.980;-1.421694;1.311706
2.990;-1.426609;1.306525
3.000;-1.431702;1.300479
3.010;-1.436764;1.293568
3.020;-1.441725;1.285924
3.030;-1.446731;1.277718
3.040;-1.452105;1.269120
3.050;-1.458182;1.260336
3.060;-1.465106;1.251694
3.070;-1.472694;1.243673
3.080;-1.480421;1.236828
3.090;-1.487550;1.231595
3.100;-1.493349;1.228096
3.110;-1.497304;1.226038
3.120;-1.499229;1.224810
3.130;-1.499224;1.223739
3.140;-1.497533;1.222375
3.150;-1.494399;1.220674
3.160;-1.490021;1.218976
3.170;-1.484621;1.217801
3.180;-1.478530;1.217585
3.190;-1.472197;1.218472
3.200;-1.466062;1.220262
3.210;-1.460357;1.222531
3.220;-1.454965;1.224858
3.230;-1.449407;1.227018
3.240;-1.442980;1.229031
3.250;-1.434978;1.231034
3.260;-1.424925;1.233088
3.270;-1.412711;1.235068
3.280;-1.398626;1.236691
3.290;-1.383293;1.237650
3.300;-1.367530;1.237728
3.310;-1.352170;1.236850
3.320;-1.337855;1.235068
3.330;-1.324877;1.232543
3.340;-1.313145;1.229542
3.350;-1.302287;1.226416
3.360;-1.291853;1.223505
3.370;-1.281485;1.220966
3.380;-1.271014;1.218629
3.390;-1.260485;1.216017
3.400;-1.250147;1.212586
3.410;-1.240396;1.208049
3.420;-1.231648;1.202586
3.430;-1.224160;1.196785
3.440;-1.217878;1.191343
3.450;-1.212404;1.186731
3.460;-1.207133;1.183003
3.470;-1.201472;1.179812
3.480;-1.195049;1.176589
3.490;-1.187809;1.172791
3.500;-1.179974;1.168103
3.510;-1.171907;1.162534
3.520;-1.163967;1.156354
3.530;-1.156399;1.149901
3.540;-1.149299;1.143400
3.550;-1.142628;1.136916
3.560;-1.136255;1.130455
3.570;-1.130038;1.124136
3.580;-1.123885;1.118298
3.590;-1.117785;1.113435
3.600;-1.111776;1.109995
3.610;-1.105879;1.108123
3.620;-1.100038;1.107538
3.630;-1.094134;1.107600
3.640;-1.088059;1.107550
3.650;-1.081812;1.106768
3.660;-1.075564;1.104921
3.670;-1.069654;1.101945
3.680;-1.064554;1.097936
3.690;-1.060784;1.093060
3.700;-1.058781;1.087568
3.710;-1.058727;1.081858
3.720;-1.060402;1.076490
3.730;-1.063130;1.072100
3.740;-1.065908;1.069219
3.750;-1.067687;1.068086
3.760;-1.067708;1.068517
3.770;-1.065713;1.069894
3.780;-1.061972;1.071304
3.790;-1.057117;1.071805
3.800;-1.051885;1.070731
3.810;-1.046862;1.067931
3.820;-1.042317;1.063815
3.830;-1.038154;1.059206
3.840;-1.034021;1.055044
3.850;-1.029503;1.052055
3.860;-1.024338;1.050519
3.870;-1.018522;1.050212
3.880;-1.012298;1.050533
3.890;-1.006030;1.050751
3.900;-1.000065;1.050275
3.910;-0.994643;1.048841
3.920;-0.989885;1.046552
3.930;-0.985821;1.043785
3.940;-0.982387;1.041005
3.950;-0.979400;1.038586
3.960;-0.976547;1.036679
3.970;-0.973444;1.035170
3.980;-0.969780;1.033727
3.990;-0.965471;1.031894
4.000;-0.960742;1.029229
4.010;-0.956079;1.025427
4.020;-0.952063;1.020437
4.030;-0.949172;1.014516
4.040;-0.947626;1.008201
4.050;-0.947342;1.002201
4.060;-0.947980;0.997239
4.070;-0.949061;0.993889
4.080;-0.950114;0.992426
4.090;-0.950793;0.992743
4.100;-0.950939;0.994353
4.110;-0.950588;0.996508
4.120;-0.949916;0.998400
4.130;-0.949175;0.999384
4.140;-0.948625;0.999135
4.150;-0.948505;0.997703
4.160;-0.949043;0.995451
4.170;-0.950470;0.992923
4.180;-0.952999;0.990664
4.190;-0.956778;0.989035
4.200;-0.961828;0.988087
4.210;-0.968043;0.987542
4.220;-0.975252;0.986904
4.230;-0.983296;0.985652
4.240;-0.992083;0.983446
4.250;-1.001587;0.980280
4.260;-1.011832;0.976530
4.270;-1.022870;0.972843
4.280;-1.034750;0.969904
4.290;-1.047505;0.968132
4.300;-1.061141;0.967487
4.310;-1.075630;0.967477
4.320;-1.090906;0.967382
4.330;-1.106819;0.966568
4.340;-1.123086;0.964741
4.350;-1.139248;0.962047
4.360;-1.154680;0.959025
4.370;-1.168670;0.956452
4.380;-1.180566;0.955101
4.390;-1.189934;0.955474
4.400;-1.196677;0.957591
4.410;-1.201052;0.960942
4.420;-1.203581;0.964642
4.430;-1.204900;0.967762
4.440;-1.205599;0.969658
4.450;-1.206122;0.970169
4.460;-1.206714;0.969607
4.470;-1.207426;0.968584
4.480;-1.208142;0.967774
4.490;-1.208636;0.967691
4.500;-1.208682;0.968527
4.510;-1.208187;0.970091
4.520;-1.207301;0.971880
4.530;-1.206432;0.973263
4.540;-1.206145;0.973696
4.550;-1.206991;0.972893
4.560;-1.209340;0.970872
4.570;-1.213310;0.967891
4.580;-1.218797;0.964358
4.590;-1.225549;0.960746
4.600;-1.233242;0.957547
4.610;-1.241550;0.955210
4.620;-1.250215;0.954041
4.630;-1.259118;0.954062
4.640;-1.268298;0.954934
4.650;-1.277889;0.955997
4.660;-1.287976;0.956430
4.670;-1.298452;0.955476
4.680;-1.308954;0.952645
4.690;-1.318932;0.947870
4.700;-1.327817;0.941522
4.710;-1.335182;0.934302
4.720;-1.340820;0.927009
4.730;-1.344703;0.920301
4.740;-1.346885;0.914557
4.750;-1.347439;0.909876
4.760;-1.346472;0.906167
4.770;-1.344222;0.903238
4.780;-1.341140;0.900854
4.790;-1.337877;0.898764
4.800;-1.335149;0.896756
4.810;-1.333535;0.894715
4.820;-1.333286;0.892656
4.830;-1.334271;0.890718
4.840;-1.336050;0.889119
4.850;-1.338067;0.888087
4.860;-1.339862;0.887787
4.870;-1.341218;0.888270
4.880;-1.342225;0.889478
4.890;-1.343232;0.891302
4.900;-1.344724;0.893636
4.910;-1.347154;0.896402
4.920;-1.350798;0.899517
4.930;-1.355691;0.902876
4.940;-1.361661;0.906339
4.950;-1.368436;0.909747
4.960;-1.375755;0.912945
4.970;-1.383418;0.915793
4.980;-1.391290;0.918163
4.990;-1.399302;0.919912
5.000;-1.407493;0.920850
5.010;-1.416071;0.920744
5.020;-1.425447;0.919381
5.030;-1.436176;0.916673
5.040;-1.448818;0.912744
5.050;-1.463766;0.907951
5.060;-1.481141;0.902789
5.070;-1.500769;0.897717
5.080;-1.522273;0.892987
5.090;-1.545199;0.888572
5.100;-1.569119;0.884250
5.110;-1.593685;0.879754
5.120;-1.618624;0.874904
5.130;-1.643712;0.869662
5.140;-1.668722;0.864109
5.150;-1.693374;0.858428
5.160;-1.717285;0.852909
5.170;-1.739936;0.847964
5.180;-1.760694;0.844087
5.190;-1.778890;0.841748
5.200;-1.793975;0.841241
5.210;-1.805689;0.842584
5.220;-1.814180;0.845498
5.230;-1.819982;0.849487
5.240;-1.823861;0.853973
5.250;-1.826573;0.858436
5.260;-1.828641;0.862507
5.270;-1.830240;0.866014
5.280;-1.831233;0.868983
5.290;-1.831331;0.871599
5.300;-1.830301;0.874182
5.310;-1.828098;0.877173
5.320;-1.824874;0.881077
5.330;-1.820853;0.886337
5.340;-1.816180;0.893144
5.350;-1.810826;0.901299
5.360;-1.804624;0.910196
5.370;-1.797412;0.918988
5.380;-1.789217;0.926824
5.390;-1.780367;0.933081
5.400;-1.771429;0.937477
5.410;-1.762978;0.940055
5.420;-1.755317;0.941088
5.430;-1.748281;0.941001
5.440;-1.741247;0.940354
5.450;-1.733325;0.939886
5.460;-1.723642;0.940512
5.470;-1.711584;0.943189
5.480;-1.696947;0.948645
5.490;-1.679955;0.957081
5.500;-1.661174;0.968018
5.510;-1.641326;0.980407
5.520;-1.621073;0.992962
5.530;-1.600862;1.004563
5.540;-1.580909;1.014561
5.550;-1.561323;1.022886
5.560;-1.542250;1.029957
5.570;-1.523936;1.036451
5.580;-1.506661;1.043047
5.590;-1.490595;1.050236
5.600;-1.475659;1.058238
5.610;-1.461501;1.067000
5.620;-1.447587;1.076219
5.630;-1.433400;1.085404
5.640;-1.418640;1.093999
5.650;-1.403314;1.101568
5.660;-1.387699;1.107987
5.670;-1.372195;1.113552
5.680;-1.357160;1.118905
5.690;-1.342798;1.124779
5.700;-1.329144;1.131640
5.710;-1.316137;1.139403
5.720;-1.303729;1.147364
5.730;-1.291968;1.154405
5.740;-1.281006;1.159395
5.750;-1.271033;1.161596
5.760;-1.262182;1.160904
5.770;-1.254448;1.157825
5.780;-1.247661;1.153242
5.790;-1.241523;1.148121
5.800;-1.235680;1.143246
5.810;-1.229798;1.139062
5.820;-1.223594;1.135647
5.830;-1.216839;1.132785
5.840;-1.209359;1.130133
5.850;-1.201051;1.127386
5.860;-1.191919;1.124401
5.870;-1.182096;1.121210
5.880;-1.171831;1.117937
5.890;-1.161460;1.114691
5.900;-1.151357;1.111473
5.910;-1.141911;1.108155
5.920;-1.133512;1.104526
5.930;-1.126523;1.100395
5.940;-1.121236;1.095698
5.950;-1.117793;1.090565
5.960;-1.116125;1.085302
5.970;-1.115919;1.080305
5.980;-1.116644;1.075949
5.990;-1.117647;1.072496
6.000;-1.118313;1.070028
6.010;-1.118232;1.068408
6.020;-1.117306;1.067274
6.030;-1.115749;1.066080
6.040;-1.113972;1.064204
6.050;-1.112421;1.061092
6.060;-1.111416;1.056396
6.070;-1.111070;1.050047
6.080;-1.111306;1.042241
6.090;-1.111972;1.033345
6.100;-1.113006;1.023789
6.110;-1.114540;1.013968
6.120;-1.116924;1.004160
6.130;-1.120630;0.994478
6.140;-1.126095;0.984845
6.150;-1.133532;0.975029
6.160;-1.142802;0.964731
6.170;-1.153399;0.953692
6.180;-1.164595;0.941782
6.190;-1.175677;0.929039
6.200;-1.186166;0.915661
6.210;-1.195915;0.901980
6.220;-1.205042;0.888428
6.230;-1.213764;0.875476
6.240;-1.222231;0.863521
6.250;-1.230435;0.852723
6.260;-1.238221;0.842870
6.270;-1.245390;0.833380
6.280;-1.251826;0.823484
6.290;-1.257602;0.812520
6.300;-1.262990;0.800218
6.310;-1.268362;0.786822
6.320;-1.274031;0.773001
6.330;-1.280119;0.759592
6.340;-1.286526;0.747301
6.350;-1.293026;0.736482
6.360;-1.299412;0.727095
6.370;-1.305611;0.718811
6.380;-1.311708;0.711212
6.390;-1.317877;0.703980
6.400;-1.324261;0.696996
6.410;-1.330887;0.690327
6.420;-1.337677;0.684098
6.430;-1.344538;0.678337
6.440;-1.351493;0.672869
6.450;-1.358738;0.667324
6.460;-1.366620;0.661263
6.470;-1.375559;0.654383
6.480;-1.385939;0.646726
6.490;-1.397974;0.638773
6.500;-1.411579;0.631353
6.510;-1.426302;0.625387
6.520;-1.441384;0.621573
6.530;-1.455927;0.620170
6.540;-1.469097;0.620949
6.550;-1.480262;0.623338
6.560;-1.489033;0.626673
6.570;-1.495228;0.630480
6.580;-1.498823;0.634676
6.590;-1.499924;0.639601
6.600;-1.498725;0.645829
6.610;-1.495443;0.653832
6.620;-1.490256;0.663647
6.630;-1.483280;0.674746
6.640;-1.474624;0.686171
6.650;-1.464473;0.696855
6.660;-1.453147;0.705956
6.670;-1.441115;0.713061
6.680;-1.428959;0.718223
6.690;-1.417309;0.721843
6.700;-1.406744;0.724464
6.710;-1.397678;0.726540
6.720;-1.390283;0.728263
6.730;-1.384472;0.729543
6.740;-1.379945;0.730117
6.750;-1.376264;0.729755
6.760;-1.372940;0.728423
6.770;-1.369511;0.726332
6.780;-1.365627;0.723863
6.790;-1.361105;0.721404
6.800;-1.355985;0.719204
6.810;-1.350554;0.717300
6.820;-1.345327;0.715535
6.830;-1.340944;0.713667
6.840;-1.337986;0.711491
6.850;-1.336764;0.708952
6.860;-1.337186;0.706166
6.870;-1.338781;0.703354
6.880;-1.340856;0.700746
6.890;-1.342719;0.698511
6.900;-1.343863;0.696779
6.910;-1.344088;0.695696
6.920;-1.343518;0.695440
6.930;-1.342521;0.696163
6.940;-1.341546;0.697885
6.950;-1.340916;0.700410
6.960;-1.340674;0.703354
6.970;-1.340553;0.706282
6.980;-1.340097;0.708914
6.990;-1.338909;0.711263
7.000;-1.336912;0.713643
7.010;-1.334493;0.716504
7.020;-1.332456;0.720205
7.030;-1.331781;0.724845
7.040;-1.333293;0.730265
7.050;-1.337367;0.736195
7.060;-1.343773;0.742454
7.070;-1.351728;0.749067
7.080;-1.360114;0.756237
7.090;-1.367766;0.764190
7.100;-1.373725;0.772960
7.110;-1.377382;0.782248
7.120;-1.378504;0.791447
7.130;-1.377176;0.799867
7.140;-1.373689;0.807014
7.150;-1.368430;0.812777
7.160;-1.361812;0.817428
7.170;-1.354255;0.821456
7.180;-1.346169;0.825358
7.190;-1.337943;0.829463
7.200;-1.329946;0.833873
7.210;-1.322563;0.838493
7.220;-1.316226;0.843111
7.230;-1.311411;0.847475
7.240;-1.308537;0.851359
7.250;-1.307809;0.854585
7.260;-1.309066;0.857021
7.270;-1.311716;0.858554
7.280;-1.314836;0.859070
7.290;-1.317435;0.858465
7.300;-1.318775;0.856700
7.310;-1.318605;0.853870
7.320;-1.317181;0.850228
7.330;-1.315075;0.846127
7.340;-1.312902;0.841919
7.350;-1.311065;0.837845
7.360;-1.309627;0.833958
7.370;-1.308347;0.830094
7.380;-1.306853;0.825903
7.390;-1.304877;0.820974
7.400;-1.302418;0.815034
7.410;-1.299762;0.808116
7.420;-1.297353;0.800578
7.430;-1.295608;0.792946
7.440;-1.294746;0.785677
7.450;-1.294736;0.778946
7.460;-1.295327;0.772568
7.470;-1.296152;0.766066
7.480;-1.296848;0.758871
7.490;-1.297118;0.750567
7.500;-1.296742;0.741132
7.510;-1.295538;0.731037
7.520;-1.293327;0.721155
7.530;-1.289962;0.712478
7.540;-1.285386;0.705748
7.550;-1.279697;0.701185
7.560;-1.273166;0.698420
7.570;-1.266218;0.696666
7.580;-1.259374;0.695021
7.590;-1.253150;0.692743
7.600;-1.247921;0.689391
7.610;-1.243812;0.684839
7.620;-1.240664;0.679226
7.630;-1.238087;0.672903
7.640;-1.235564;0.666334
7.650;-1.232561;0.659962
7.660;-1.228604;0.654035
7.670;-1.223363;0.648497
7.680;-1.216739;0.643040
7.690;-1.208935;0.637292
7.700;-1.200452;0.631025
7.710;-1.191977;0.624255
7.720;-1.184218;0.617212
7.730;-1.177711;0.610229
7.740;-1.172711;0.603643
7.750;-1.169160;0.597709
7.760;-1.166745;0.592550
7.770;-1.164983;0.588136
7.780;-1.163331;0.584304
7.790;-1.161272;0.580822
7.800;-1.158397;0.577455
7.810;-1.154473;0.574005
7.820;-1.149490;0.570306
7.830;-1.143686;0.566208
7.840;-1.137515;0.561595
7.850;-1.131576;0.556437
7.860;-1.126500;0.550833
7.870;-1.122808;0.544984
7.880;-1.120787;0.539102
7.890;-1.120405;0.533320
7.900;-1.121319;0.527654
7.910;-1.122969;0.522058
7.920;-1.124750;0.516542
7.930;-1.126185;0.511260
7.940;-1.127065;0.506494
7.950;-1.127495;0.502523
7.960;-1.127833;0.499450
7.970;-1.128528;0.497110
7.980;-1.129934;0.495143
