Time[s];COPx[cm];COPy[cm]
0.010;0.125492;0.995621
0.020;0.122083;1.009661
0.030;0.118532;1.022359
0.040;0.114689;1.032747
0.050;0.110233;1.040399
0.060;0.104662;1.045439
0.070;0.097383;1.048373
0.080;0.087879;1.049835
0.090;0.075914;1.050347
0.100;0.061631;1.050186
0.110;0.045495;1.049377
0.120;0.028084;1.047817
0.130;0.009862;1.045486
0.140;-0.008931;1.042641
0.150;-0.028176;1.039874
0.160;-0.047646;1.037947
0.170;-0.066805;1.037515
0.180;-0.084793;1.038885
0.190;-0.100642;1.041923
0.200;-0.113622;1.046127
0.210;-0.123531;1.050777
0.220;-0.130769;1.055099
0.230;-0.136167;1.058417
0.240;-0.140644;1.060281
0.250;-0.144847;1.060588
0.260;-0.148932;1.059665
0.270;-0.152575;1.058270
0.280;-0.155190;1.057421
0.290;-0.156249;1.058064
0.300;-0.155572;1.060711
0.310;-0.153449;1.065218
0.320;-0.150532;1.070842
0.330;-0.147550;1.076527
0.340;-0.144975;1.081286
0.350;-0.142834;1.084500
0.360;-0.140745;1.086036
0.370;-0.138126;1.086185
0.380;-0.134477;1.085508
0.390;-0.129587;1.084676
0.400;-0.123642;1.084361
0.410;-0.117199;1.085155
0.420;-0.111030;1.087474
0.430;-0.105896;1.091464
0.440;-0.102305;1.096931
0.450;-0.100373;1.103363
0.460;-0.099802;1.110042
0.470;-0.099995;1.116209
0.480;-0.100228;1.121254
0.490;-0.099861;1.124891
0.500;-0.098515;1.127278
0.510;-0.096187;1.128998
0.520;-0.093233;1.130879
0.530;-0.090212;1.133713
0.540;-0.087676;1.138018
0.550;-0.085962;1.143956
0.560;-0.085073;1.151395
0.570;-0.084675;1.160024
0.580;-0.084239;1.169427
0.590;-0.083266;1.179133
0.600;-0.081515;1.188641
0.610;-0.079089;1.197502
0.620;-0.076377;1.205431
0.630;-0.073854;1.212426
0.640;-0.071846;1.218789
0.650;-0.070336;1.225008
0.660;-0.068933;1.231544
0.670;-0.067027;1.238657
0.680;-0.064079;1.246358
0.690;-0.059884;1.254480
0.700;-0.054676;1.262766
0.710;-0.049017;1.270918
0.720;-0.043550;1.278598
0.730;-0.038735;1.285421
0.740;-0.034673;1.290987
0.750;-0.031106;1.294961
0.760;-0.027561;1.297192
0.770;-0.023598;1.297825
0.780;-0.019052;1.297344
0.790;-0.014147;1.296493
0.800;-0.009426;1.296067
0.810;-0.005521;1.296641
0.820;-0.002890;1.298341
0.830;-0.001658;1.300790
0.840;-0.001633;1.303274
0.850;-0.002458;1.305083
0.860;-0.003787;1.305887
0.870;-0.005398;1.305957
0.880;-0.007184;1.306104
0.890;-0.009079;1.307312
0.900;-0.010961;1.310243
0.910;-0.012629;1.314862
0.920;-0.013861;1.320386
0.930;-0.014519;1.325593
0.940;-0.014633;1.329307
0.950;-0.014409;1.330850
0.960;-0.014147;1.330257
0.970;-0.014086;1.328229
0.980;-0.014224;1.325867
0.990;-0.014199;1.324313
1.000;-0.013335;1.324444
1.010;-0.010862;1.326687
1.020;-0.006241;1.331011
1.030;0.000562;1.337052
1.040;0.008994;1.344284
1.050;0.018086;1.352151
1.060;0.026801;1.360099
1.070;0.034411;1.367561
1.080;0.040713;1.373984
1.090;0.046025;1.378956
1.100;0.050981;1.382355
1.110;0.056229;1.384438
1.120;0.062166;1.385794
1.130;0.068790;1.387197
1.140;0.075721;1.389407
1.150;0.082389;1.392958
1.160;0.088321;1.397997
1.170;0.093426;1.404244
1.180;0.098129;1.411110
1.190;0.103273;1.417939
1.200;0.109802;1.424242
1.210;0.118387;1.429861
1.220;0.129167;1.434991
1.230;0.141721;1.440089
1.240;0.155257;1.445660
1.250;0.168894;1.452016
1.260;0.181947;1.459103
1.270;0.194081;1.466492
1.280;0.205327;1.473565
1.290;0.215941;1.479789
1.300;0.226178;1.484953
1.310;0.236091;1.489262
1.320;0.245425;1.493213
1.330;0.253677;1.497327
1.340;0.260270;1.501862
1.350;0.264799;1.506656
1.360;0.267221;1.511201
1.370;0.267914;1.514887
1.380;0.267555;1.517298
1.390;0.266877;1.518417
1.400;0.266426;1.518668
1.410;0.266431;1.518817
1.420;0.266825;1.519774
1.430;0.267363;1.522338
1.440;0.267770;1.526951
1.450;0.267845;1.533513
1.460;0.267508;1.541366
1.470;0.266811;1.549477
1.480;0.265901;1.556770
1.490;0.264974;1.562480
1.500;0.264216;1.566376
1.510;0.263770;1.568776
1.520;0.263699;1.570376
1.530;0.263937;1.571992
1.540;0.264263;1.574302
1.550;0.264332;1.577666
1.560;0.263799;1.582068
1.570;0.262504;1.587184
1.580;0.260600;1.592538
1.590;0.258517;1.597689
1.600;0.256777;1.602374
1.610;0.255744;1.606575
1.620;0.255468;1.610489
1.630;0.255702;1.614428
1.640;0.256065;1.618670
1.650;0.256255;1.623300
1.660;0.256199;1.628090
1.670;0.256084;1.632471
1.680;0.256283;1.635688
1.690;0.257227;1.637106
1.700;0.259282;1.636554
1.710;0.262679;1.634498
1.720;0.267486;1.631936
1.730;0.273590;1.630024
1.740;0.280678;1.629643
1.750;0.288270;1.631110
1.760;0.295822;1.634141
1.770;0.302890;1.638063
1.780;0.309289;1.642134
1.790;0.315148;1.645849
1.800;0.320843;1.649077
1.810;0.326812;1.651991
1.820;0.333332;1.654870
1.830;0.340356;1.657922
1.840;0.347515;1.661234
1.850;0.354285;1.664842
1.860;0.360267;1.668813
1.870;0.365439;1.673264
1.880;0.370256;1.678323
1.890;0.375530;1.684069
1.900;0.382092;1.690466
1.910;0.390410;1.697353
1.920;0.400350;1.704496
1.930;0.411193;1.711673
1.940;0.421892;1.718753
1.950;0.431421;1.725713
1.960;0.439077;1.732584
1.970;0.444630;1.739367
1.980;0.448311;1.745960
1.990;0.450685;1.752154
2.000;0.452490;1.757689
2.010;0.454485;1.762363
2.020;0.457341;1.766122
2.030;0.461552;1.769119
2.040;0.467365;1.771658
2.050;0.474730;1.774071
2.060;0.483262;1.776570
2.070;0.492286;1.779179
2.080;0.500956;1.781767
2.090;0.508452;1.784126
2.100;0.514223;1.786036
2.110;0.518201;1.787350
2.120;0.520901;1.788102
2.130;0.523342;1.788609
2.140;0.526774;1.789460
2.150;0.532310;1.791328
2.160;0.540565;1.794716
2.170;0.551439;1.799762
2.180;0.564091;1.806230
2.190;0.577141;1.813656
2.200;0.589058;1.821543
2.210;0.598648;1.829515
2.220;0.605462;1.837373
2.230;0.609943;1.845105
2.240;0.613216;1.852878
2.250;0.616584;1.861027
2.260;0.620960;1.869963
2.270;0.626496;1.879985
2.280;0.632584;1.891074
2.290;0.638228;1.902811
2.300;0.642583;1.914506
2.310;0.645393;1.925462
2.320;0.647090;1.935237
2.330;0.648538;1.943742
2.340;0.650583;1.951172
2.350;0.653647;1.957795
2.360;0.657567;1.963744
2.370;0.661688;1.968901
2.380;0.665140;1.972946
2.390;0.667170;1.975529
2.400;0.667422;1.976496
2.410;0.666080;1.976041
2.420;0.663807;1.974727
2.430;0.661474;1.973347
2.440;0.659786;1.972688
2.450;0.658938;1.973288
2.460;0.658493;1.975266
2.470;0.657527;1.978303
2.480;0.654987;1.981760
2.490;0.650101;1.984877
2.500;0.642631;1.987009
2.510;0.632897;1.987792
2.520;0.621590;1.987200
2.530;0.609481;1.985487
2.540;0.597144;1.983054
2.550;0.584805;1.980324
2.560;0.572337;1.977650
2.570;0.559392;1.975272
2.580;0.545586;1.973298
2.590;0.530668;1.971709
2.600;0.514568;1.970390
2.610;0.497332;1.969181
2.620;0.478988;1.967940
2.630;0.459444;1.966588
2.640;0.438515;1.965095
2.650;0.416071;1.963414
2.660;0.392205;1.961409
2.670;0.367284;1.958862
2.680;0.341830;1.955564
2.690;0.316271;1.951416
2.700;0.290705;1.946480
2.710;0.264795;1.940955
2.720;0.237880;1.935109
2.730;0.209260;1.929204
2.740;0.178528;1.923408
2.750;0.145785;1.917735
2.760;0.111639;1.912017
2.770;0.076981;1.905972
2.780;0.042678;1.899326
2.790;0.009317;1.891949
2.800;-0.022866;1.883915
2.810;-0.053891;1.875469
2.820;-0.083836;1.866934
2.830;-0.112655;1.858612
2.840;-0.140063;1.850719
2.850;-0.165565;1.843365
2.860;-0.188631;1.836570
2.870;-0.208968;1.830292
2.880;-0.226747;1.824441
2.890;-0.242630;1.818874
2.900;-0.257537;1.813371
2.910;-0.272230;1.807655
2.920;-0.286892;1.801485
2.930;-0.300911;1.794770
2.940;-0.312986;1.787634
2.950;-0.321528;1.780338
2.960;-0.325219;1.773113
2.970;-0.323499;1.765984
2.980;-0.316819;1.758701
2.990;-0.306560;1.750786
3.000;-0.294680;1.741699
3.010;-0.283202;1.731076
3.020;-0.273718;1.718972
3.030;-0.267018;1.705956
3.040;-0.262976;1.692977
3.050;-0.260692;1.681020
3.060;-0.258800;1.670713
3.070;-0.255804;1.662107
3.080;-0.250345;1.654703
3.090;-0.241398;1.647694
3.100;-0.228410;1.640299
3.110;-0.211416;1.632079
3.120;-0.191053;1.623147
3.130;-0.168421;1.614174
3.140;-0.144807;1.606170
3.150;-0.121340;1.600106
3.160;-0.098759;1.596522
3.170;-0.077379;1.595310
3.180;-0.057274;1.595748
3.190;-0.038524;1.596759
3.200;-0.021407;1.597275
3.210;-0.006413;1.596565
3.220;0.005890;1.594428
3.230;0.015092;1.591189
3.240;0.021144;1.587521
3.250;0.024480;1.584183
3.260;0.026014;1.581758
3.270;0.027017;1.580492
3.280;0.028909;1.580267
3.290;0.033006;1.580703
3.300;0.040241;1.581341
3.310;0.050909;1.581826
3.320;0.064527;1.581983
3.330;0.079870;1.581754
3.340;0.095230;1.581071
3.350;0.108818;1.579766
3.360;0.119176;1.577604
3.370;0.125473;1.574421
3.380;0.127591;1.570258
3.390;0.126033;1.565384
3.400;0.121695;1.560195
3.410;0.115609;1.555051
3.420;0.108731;1.550165
3.430;0.101803;1.545580
3.440;0.095302;1.541241
3.450;0.089423;1.537096
3.460;0.084062;1.533150
3.470;0.078813;1.529414
3.480;0.073018;1.525793
3.490;0.065922;1.521991
3.500;0.056919;1.517511
3.510;0.045783;1.511782
3.520;0.032725;1.504356
3.530;0.018190;1.495086
3.540;0.002501;1.484220
3.550;-0.014419;1.472358
3.560;-0.033030;1.460344
3.570;-0.053843;1.449109
3.580;-0.077005;1.439480
3.590;-0.102058;1.431972
3.600;-0.128028;1.426607
3.610;-0.153794;1.422851
3.620;-0.178537;1.419725
3.630;-0.202009;1.416087
3.640;-0.224528;1.410989
3.650;-0.246709;1.403975
3.660;-0.269093;1.395202
3.670;-0.291843;1.385339
3.680;-0.314613;1.375335
3.690;-0.336611;1.366139
3.700;-0.356796;1.358478
3.710;-0.374120;1.352722
3.720;-0.387747;1.348866
3.730;-0.397219;1.346637
3.740;-0.402556;1.345670
3.750;-0.404252;1.345687
3.760;-0.403138;1.346577
3.770;-0.400150;1.348392
3.780;-0.396074;1.351287
3.790;-0.391394;1.355440
3.800;-0.386283;1.360969
3.810;-0.380717;1.367810
3.820;-0.374631;1.375588
3.830;-0.368033;1.383566
3.840;-0.361009;1.390783
3.850;-0.353673;1.396363
3.860;-0.346092;1.399846
3.870;-0.338252;1.401332
3.880;-0.330073;1.401389
3.890;-0.321444;1.400786
3.900;-0.312295;1.400270
3.910;-0.302667;1.400473
3.920;-0.292773;1.401902
3.930;-0.283006;1.404883
3.940;-0.273868;1.409427
3.950;-0.265852;1.415097
3.960;-0.259309;1.421032
3.970;-0.254368;1.426194
3.980;-0.250958;1.429728
3.990;-0.248902;1.431232
4.000;-0.248048;1.430807
4.010;-0.248332;1.428887
4.020;-0.249769;1.426007
4.030;-0.252375;1.422596
4.040;-0.256110;1.418904
4.050;-0.260871;1.415019
4.060;-0.266539;1.410961
4.070;-0.273035;1.406767
4.080;-0.280330;1.402533
4.090;-0.288408;1.398402
4.100;-0.297193;1.394526
4.110;-0.306487;1.391033
4.120;-0.315975;1.388020
4.130;-0.325295;1.385569
4.140;-0.334147;1.383753
4.150;-0.342395;1.382616
4.160;-0.350091;1.382138
4.170;-0.357423;1.382211
4.180;-0.364637;1.382629
4.190;-0.371978;1.383105
4.200;-0.379696;1.383303
4.210;-0.388074;1.382953
4.220;-0.397432;1.382008
4.230;-0.408049;1.380769
4.240;-0.420045;1.379849
4.250;-0.433272;1.379962
4.260;-0.447290;1.381625
4.270;-0.461476;1.384956
4.280;-0.475203;1.389670
4.290;-0.488041;1.395238
4.300;-0.499860;1.401082
4.310;-0.510811;1.406689
4.320;-0.521185;1.411651
4.330;-0.531238;1.415708
4.340;-0.541056;1.418836
4.350;-0.550512;1.421309
4.360;-0.559314;1.423670
4.370;-0.567122;1.426571
4.380;-0.573674;1.430560
4.390;-0.578863;1.435899
4.400;-0.582760;1.442497
4.410;-0.585550;1.449976
4.420;-0.587451;1.457819
4.430;-0.588601;1.465541
4.440;-0.588989;1.472808
4.450;-0.588429;1.479470
4.460;-0.586628;1.485502
4.470;-0.583299;1.490902
4.480;-0.578280;1.495607
4.490;-0.571585;1.499500
4.500;-0.563393;1.502508
4.510;-0.554011;1.504715
4.520;-0.543824;1.506418
4.530;-0.533259;1.508057
4.540;-0.522727;1.510083
4.550;-0.512549;1.512831
4.560;-0.502851;1.516452
4.570;-0.493506;1.520903
4.580;-0.484161;1.525967
4.590;-0.474372;1.531287
4.600;-0.463812;1.536415
4.610;-0.452448;1.540891
4.620;-0.440609;1.544323
4.630;-0.428903;1.546470
4.640;-0.418021;1.547341
4.650;-0.408546;1.547289
4.660;-0.400820;1.547032
4.670;-0.394876;1.547497
4.680;-0.390447;1.549514
4.690;-0.387037;1.553497
4.700;-0.384081;1.559284
4.710;-0.381139;1.566218
4.720;-0.378047;1.573376
4.730;-0.374920;1.579863
4.740;-0.372049;1.585063
4.750;-0.369756;1.588821
4.760;-0.368315;1.591496
4.770;-0.367976;1.593855
4.780;-0.369029;1.596802
4.790;-0.371796;1.601008
4.800;-0.376496;1.606633
4.810;-0.383004;1.613274
4.820;-0.390664;1.620165
4.830;-0.398326;1.626523
4.840;-0.404644;1.631865
4.850;-0.408543;1.636127
4.860;-0.409617;1.639569
4.870;-0.408247;1.642568
4.880;-0.405374;1.645430
4.890;-0.402056;1.648313
4.900;-0.399021;1.651243
4.910;-0.396409;1.654133
4.920;-0.393784;1.656786
4.930;-0.390396;1.658903
4.940;-0.385571;1.660175
4.950;-0.379047;1.660458
4.960;-0.371108;1.659943
4.970;-0.362475;1.659171
4.980;-0.354019;1.658839
4.990;-0.346445;1.659495
5.000;-0.340060;1.661308
5.010;-0.334715;1.664021
5.020;-0.329916;1.667073
5.030;-0.325027;1.669798
5.040;-0.319503;1.671607
5.050;-0.313076;1.672101
5.060;-0.305840;1.671130
5.070;-0.298187;1.668808
5.080;-0.290636;1.665485
5.090;-0.283637;1.661666
5.100;-0.277465;1.657921
5.110;-0.272269;1.654791
5.120;-0.268181;1.652720
5.130;-0.265420;1.651985
5.140;-0.264292;1.652632
5.150;-0.265099;1.654429
5.160;-0.268026;1.656863
5.170;-0.273047;1.659197
5.180;-0.279867;1.660603
5.190;-0.287921;1.660339
5.200;-0.296434;1.657951
5.210;-0.304576;1.653417
5.220;-0.311674;1.647215
5.230;-0.317401;1.640273
5.240;-0.321872;1.633784
5.250;-0.325559;1.628938
5.260;-0.329051;1.626626
5.270;-0.332747;1.627195
5.280;-0.336612;1.630358
5.290;-0.340138;1.635291
5.300;-0.342540;1.640899
5.310;-0.343083;1.646136
5.320;-0.341390;1.650239
5.330;-0.337583;1.652847
5.340;-0.332221;1.653980
5.350;-0.326096;1.653954
5.360;-0.319990;1.653238
5.370;-0.314488;1.652294
5.380;-0.309874;1.651450
5.390;-0.306121;1.650828
5.400;-0.302972;1.650347
5.410;-0.300084;1.649804
5.420;-0.297186;1.649019
5.430;-0.294203;1.647965
5.440;-0.291276;1.646817
5.450;-0.288678;1.645870
5.460;-0.286665;1.645433
5.470;-0.285329;1.645782
5.480;-0.284524;1.647163
5.490;-0.283854;1.649789
5.500;-0.282756;1.653734
5.510;-0.280633;1.658771
5.520;-0.277021;1.664271
5.530;-0.271716;1.669295
5.540;-0.264836;1.672893
5.550;-0.256809;1.674475
5.560;-0.248287;1.674054
5.570;-0.240004;1.672238
5.580;-0.232602;1.670016
5.590;-0.226480;1.668431
5.600;-0.221724;1.668264
5.610;-0.218144;1.669819
5.620;-0.215390;1.672870
5.630;-0.213085;1.676766
5.640;-0.210922;1.680660
5.650;-0.208662;1.683750
5.660;-0.206063;1.685459
5.670;-0.202814;1.685519
5.680;-0.198542;1.683996
5.690;-0.192947;1.681256
5.700;-0.186005;1.677877
5.710;-0.178102;1.674506
5.720;-0.170005;1.671713
5.730;-0.162655;1.669883
5.740;-0.156860;1.669186
5.750;-0.153036;1.669627
5.760;-0.151115;1.671100
5.770;-0.150669;1.673447
5.780;-0.151150;1.676504
5.790;-0.152129;1.680120
5.800;-0.153388;1.684152
5.810;-0.154861;1.688409
5.820;-0.156513;1.692603
5.830;-0.158241;1.696352
5.840;-0.159859;1.699268
5.850;-0.161159;1.701118
5.860;-0.161995;1.701951
5.870;-0.162340;1.702119
5.880;-0.162281;1.702128
5.890;-0.161973;1.702410
5.900;-0.161595;1.703168
5.910;-0.161317;1.704395
5.920;-0.161312;1.706019
5.930;-0.161779;1.708038
5.940;-0.162979;1.710516
5.950;-0.165215;1.713450
5.960;-0.168754;1.716622
5.970;-0.173710;1.719591
5.980;-0.179979;1.721834
5.990;-0.187245;1.722958
6.000;-0.195062;1.722859
6.010;-0.202951;1.721755
6.020;-0.210472;1.720118
6.030;-0.217308;1.718548
6.040;-0.223335;1.717621
6.050;-0.228679;1.717738
6.060;-0.233652;1.719007
6.070;-0.238570;1.721209
6.080;-0.243521;1.723832
6.090;-0.248241;1.726172
6.100;-0.252211;1.727478
6.110;-0.254938;1.727155
6.120;-0.256273;1.724973
6.130;-0.256585;1.721228
6.140;-0.256702;1.716723
6.150;-0.257641;1.712529
6.160;-0.260249;1.709591
6.170;-0.264922;1.708365
6.180;-0.271471;1.708656
6.190;-0.279177;1.709771
6.200;-0.286999;1.710871
6.210;-0.293877;1.711345
6.220;-0.299023;1.711019
6.230;-0.302114;1.710148
6.240;-0.303325;1.709251
6.250;-0.303225;1.708879
6.260;-0.302575;1.709396
6.270;-0.302087;1.710857
6.280;-0.302199;1.713025
6.290;-0.302960;1.715492
6.300;-0.304100;1.717834
6.310;-0.305229;1.719699
6.320;-0.306083;1.720830
6.330;-0.306649;1.721070
6.340;-0.307169;1.720416
6.350;-0.308041;1.719127
6.360;-0.309715;1.717787
6.370;-0.312594;1.717205
6.380;-0.316952;1.718119
6.390;-0.322843;1.720831
6.400;-0.330043;1.724984
6.410;-0.338077;1.729629
6.420;-0.346315;1.733573
6.430;-0.354118;1.735849
6.440;-0.360970;1.736115
6.450;-0.366574;1.734767
6.460;-0.370905;1.732743
6.470;-0.374230;1.731093
6.480;-0.377049;1.730531
6.490;-0.379977;1.731179
6.500;-0.383562;1.732560
6.510;-0.388118;1.733828
6.520;-0.393656;1.734106
6.530;-0.399900;1.732792
6.540;-0.406376;1.729736
6.550;-0.412491;1.725239
6.560;-0.417598;1.719939
6.570;-0.421071;1.714638
6.580;-0.422414;1.710117
6.590;-0.421387;1.706950
6.600;-0.418085;1.705329
6.610;-0.412942;1.704952
6.620;-0.406650;1.705052
6.630;-0.400029;1.704613
6.640;-0.393889;1.702730
6.650;-0.388888;1.698949
6.660;-0.385388;1.693428
6.670;-0.383329;1.686830
6.680;-0.382182;1.680028
6.690;-0.381048;1.673781
6.700;-0.378908;1.668509
6.710;-0.374935;1.664261
6.720;-0.368734;1.660814
6.730;-0.360432;1.657835
6.740;-0.350580;1.655011
6.750;-0.339951;1.652110
6.760;-0.329316;1.648979
6.770;-0.319274;1.645552
6.780;-0.310201;1.641846
6.790;-0.302271;1.637982
6.800;-0.295515;1.634191
6.810;-0.289848;1.630783
6.820;-0.285058;1.628097
6.830;-0.280798;1.626425
6.840;-0.276617;1.625936
6.850;-0.272076;1.626599
6.860;-0.266867;1.628162
6.870;-0.260904;1.630180
6.880;-0.254331;1.632133
6.890;-0.247478;1.633556
6.900;-0.240765;1.634153
6.910;-0.234592;1.633835
6.920;-0.229221;1.632692
6.930;-0.224730;1.630951
6.940;-0.221044;1.628932
6.950;-0.218032;1.627028
6.960;-0.215608;1.625640
6.970;-0.213773;1.625083
6.980;-0.212572;1.625473
6.990;-0.211993;1.626655
7.000;-0.211853;1.628209
7.010;-0.211760;1.629524
7.020;-0.211152;1.629955
7.030;-0.209410;1.629019
7.040;-0.206017;1.626562
7.050;-0.200710;1.622841
7.060;-0.193623;1.618468
7.070;-0.185321;1.614224
7.080;-0.176710;1.610812
7.090;-0.168807;1.608663
7.100;-0.162449;1.607867
7.110;-0.158015;1.608220
7.120;-0.155289;1.609334
7.130;-0.153502;1.610750
7.140;-0.151585;1.612024
7.150;-0.148509;1.612803
7.160;-0.143595;1.612898
7.170;-0.136676;1.612326
7.180;-0.128077;1.611311
7.190;-0.118454;1.610165
7.200;-0.108552;1.609117
7.210;-0.098963;1.608166
7.220;-0.089973;1.607078
7.230;-0.081518;1.605541
7.240;-0.073289;1.603381
7.250;-0.064927;1.600709
7.260;-0.056246;1.597921
7.270;-0.047402;1.595563
7.280;-0.038942;1.594140
7.290;-0.031720;1.593922
7.300;-0.026689;1.594815
7.310;-0.024632;1.596352
7.320;-0.025906;1.597839
7.330;-0.030275;1.598613
7.340;-0.036888;1.598302
7.350;-0.044438;1.596949
7.360;-0.051445;1.594947
7.370;-0.056610;1.592831
7.380;-0.059105;1.591051
7.390;-0.058736;1.589827
7.400;-0.055919;1.589127
7.410;-0.051487;1.588749
7.420;-0.046402;1.588452
7.430;-0.041460;1.588072
7.440;-0.037092;1.587578
7.450;-0.033304;1.587030
7.460;-0.029785;1.586483
7.470;-0.026114;1.585893
7.480;-0.021998;1.585134
7.490;-0.017416;1.584119
7.500;-0.012607;1.582941
7.510;-0.007900;1.581885
7.520;-0.003495;1.581299
7.530;0.000657;1.581388
7.540;0.004800;1.582097
7.550;0.009210;1.583145
7.560;0.014033;1.584188
7.570;0.019193;1.584971
7.580;0.024422;1.585401
7.590;0.029347;1.585535
7.600;0.033631;1.585537
7.610;0.037087;1.585632
7.620;0.039735;1.586065
7.630;0.041782;1.587026
7.640;0.043552;1.588591
7.650;0.045401;1.590670
7.660;0.047641;1.593019
7.670;0.050465;1.595296
7.680;0.053906;1.597180
7.690;0.057822;1.598488
7.700;0.061924;1.599251
7.710;0.065846;1.599714
7.720;0.069218;1.600263
7.730;0.071719;1.601312
7.740;0.073109;1.603141
7.750;0.073279;1.605754
7.760;0.072320;1.608826
7.770;0.070564;1.611822
7.780;0.068497;1.614249
7.790;0.066575;1.615916
7.800;0.065044;1.617032
7.810;0.063879;1.618112
7.820;0.062890;1.619764
7.830;0.061889;1.622462
7.840;0.060827;1.626401
7.850;0.059808;1.631443
7.860;0.059017;1.637140
7.870;0.058639;1.642843
7.880;0.058801;1.647878
7.890;0.059530;1.651784
7.900;0.060713;1.654514
7.910;0.062037;1.656530
7.920;0.062973;1.658688
7.930;0.062820;1.661931
7.940;0.060853;1.666899
7.950;0.056554;1.673627
7.960;0.049863;1.681499
7.970;0.041305;1.689495
7.980;0.031878;1.696635
7.990;0.022711;1.702406
8.000;0.014647;1.706965
8.010;0.007950;1.711027
8.020;0.002272;1.715508
8.030;-0.003128;1.721108
8.040;-0.009013;1.728057
8.050;-0.015821;1.736122
8.060;-0.023509;1.744812
8.070;-0.031659;1.753611
8.080;-0.039764;1.762119
8.090;-0.047513;1.770083
