Time[s];COPx[cm];COPy[cm]
0.010;2.177794;3.840256
0.020;2.238906;3.832381
0.030;2.299483;3.825151
0.040;2.358681;3.819353
0.050;2.415339;3.815919
0.060;2.468107;3.815754
0.070;2.515743;3.819506
0.080;2.557479;3.827432
0.090;2.593295;3.839435
0.100;2.623982;3.855232
0.110;2.650942;3.874577
0.120;2.675817;3.897408
0.130;2.700071;3.923884
0.140;2.724686;3.954281
0.150;2.750030;3.988814
0.160;2.775911;4.027430
0.170;2.801785;4.069612
0.180;2.827066;4.114255
0.190;2.851478;4.159685
0.200;2.875299;4.203862
0.210;2.899417;4.244765
0.220;2.925108;4.280865
0.230;2.953654;4.311552
0.240;2.985956;4.337368
0.250;3.022279;4.359920
0.260;3.062219;4.381458
0.270;3.104813;4.404219
0.280;3.148714;4.429739
0.290;3.192345;4.458401
0.300;3.234024;4.489372
0.310;3.272090;4.520965
0.320;3.305077;4.551245
0.330;3.331915;4.578655
0.340;3.352090;4.602400
0.350;3.365676;4.622493
0.360;3.373253;4.639480
0.370;3.375702;4.654030
0.380;3.373932;4.666572
0.390;3.368594;4.677110
0.400;3.359877;4.685230
0.410;3.347480;4.690281
0.420;3.330816;4.691628
0.430;3.309392;4.688898
0.440;3.283200;4.682113
0.450;3.252931;4.671673
0.460;3.219884;4.658163
0.470;3.185620;4.642053
0.480;3.151506;4.623383
0.490;3.118373;4.601578
0.500;3.086402;4.575495
0.510;3.055274;4.543786
0.520;3.024468;4.505455
0.530;2.993579;4.460440
0.540;2.962536;4.409943
0.550;2.931666;4.356385
0.560;2.901578;4.302950
0.570;2.872900;4.252879
0.580;2.845971;4.208720
0.590;2.820602;4.171784
0.600;2.796027;4.141992
0.610;2.771066;4.118174
0.620;2.744431;4.098691
0.630;2.715055;4.082149
0.640;2.682298;4.067928
0.650;2.645947;4.056362
0.660;2.606019;4.048534
0.670;2.562458;4.045788
0.680;2.514887;4.049159
0.690;2.462513;4.058945
0.700;2.404279;4.074597
0.710;2.339268;4.094939
0.720;2.267257;4.118590
0.730;2.189259;4.144339
0.740;2.107751;4.171289
0.750;2.026419;4.198763
0.760;1.949392;4.226092
0.770;1.880216;4.252494
0.780;1.820938;4.277112
0.790;1.771641;4.299182
0.800;1.730583;4.318199
0.810;1.694854;4.333984
0.820;1.661298;4.346620
0.830;1.627410;4.356312
0.840;1.591964;4.363249
0.850;1.555220;4.367503
0.860;1.518696;4.368975
0.870;1.484575;4.367358
0.880;1.454971;4.362133
0.890;1.431285;4.352587
0.900;1.413837;4.337921
0.910;1.401869;4.317440
0.920;1.393854;4.290805
0.930;1.387982;4.258297
0.940;1.382673;4.220966
0.950;1.376970;4.180602
0.960;1.370706;4.139461
0.970;1.364439;4.099805
0.980;1.359203;4.063408
0.990;1.356153;4.031191
1.000;1.356212;4.003109
1.010;1.359839;3.978330
1.020;1.366980;3.955625
1.030;1.377243;3.933859
1.040;1.390205;3.912417
1.050;1.405710;3.891428
1.060;1.424042;3.871781
1.070;1.445890;3.854953
1.080;1.472120;3.842752
1.090;1.503416;3.837029
1.100;1.539906;3.839348
1.110;1.580924;3.850649
1.120;1.624995;3.870933
1.130;1.670097;3.899083
1.140;1.714087;3.932920
1.150;1.755144;3.969522
1.160;1.792050;4.005778
1.170;1.824227;4.039024
1.180;1.851553;4.067578
1.190;1.874034;4.090991
1.200;1.891492;4.109942
1.210;1.903409;4.125796
1.220;1.908998;4.140003
1.230;1.907477;4.153510
1.240;1.898439;4.166404
1.250;1.882165;4.177887
1.260;1.859773;4.186573
1.270;1.833131;4.190993
1.280;1.804530;4.190126
1.290;1.776235;4.183803
1.300;1.750040;4.172846
1.310;1.727003;4.158904
1.320;1.707408;4.144039
1.330;1.690928;4.130199
1.340;1.676882;4.118769
1.350;1.664476;4.110313
1.360;1.652971;4.104580
1.370;1.641768;4.100695
1.380;1.630425;4.097443
1.390;1.618660;4.093530
1.400;1.606331;4.087753
1.410;1.593427;4.079045
1.420;1.580031;4.066436
1.430;1.566276;4.048996
1.440;1.552280;4.025870
1.450;1.538060;3.996394
1.460;1.523456;3.960293
1.470;1.508070;3.917850
1.480;1.491303;3.869999
1.490;1.472474;3.818260
1.500;1.451033;3.764493
1.510;1.426794;3.710474
1.520;1.400105;3.657435
1.530;1.371908;3.605709
1.540;1.343658;3.554661
1.550;1.317135;3.502976
1.560;1.294205;3.449241
1.570;1.276582;3.392617
1.580;1.265644;3.333348
1.590;1.262309;3.272914
1.600;1.267010;3.213784
1.610;1.279757;3.158881
1.620;1.300247;3.110926
1.630;1.327962;3.071869
1.640;1.362179;3.042496
1.650;1.401927;3.022304
1.660;1.445954;3.009629
1.670;1.492809;3.002001
1.680;1.541061;2.996661
1.690;1.589554;2.991163
1.700;1.637591;2.983931
1.710;1.684950;2.974614
1.720;1.731722;2.964122
1.730;1.778078;2.954292
1.740;1.824071;2.947303
1.750;1.869538;2.945045
1.760;1.914117;2.948658
1.770;1.957346;2.958357
1.780;1.998788;2.973523
1.790;2.038170;2.992968
1.800;2.075498;3.015251
1.810;2.111126;3.038913
1.820;2.145756;3.062580
1.830;2.180335;3.084970
1.840;2.215827;3.104899
1.850;2.252869;3.121361
1.860;2.291450;3.133687
1.870;2.330747;3.141676
1.880;2.369238;3.145624
1.890;2.405084;3.146176
1.900;2.436664;3.144080
1.910;2.463045;3.139958
1.920;2.484202;3.134224
1.930;2.500916;3.127184
1.940;2.514430;3.119249
1.950;2.526039;3.111123
1.960;2.536805;3.103868
1.970;2.547440;3.098803
1.980;2.558320;3.097254
1.990;2.569512;3.100266
2.000;2.580742;3.108377
2.010;2.591349;3.121550
2.020;2.600294;3.139275
2.030;2.606335;3.160792
2.040;2.608350;3.185334
2.050;2.605714;3.212316
2.060;2.598585;3.241355
2.070;2.587953;3.272108
2.080;2.575439;3.303984
2.090;2.562926;3.335887
2.100;2.552161;3.366170
2.110;2.544479;3.392879
2.120;2.540682;3.414252
2.130;2.541053;3.429272
2.140;2.545458;3.438076
2.150;2.553469;3.442009
2.160;2.564479;3.443287
2.170;2.577799;3.444409
2.180;2.592752;3.447576
2.190;2.608753;3.454329
2.200;2.625359;3.465454
2.210;2.642227;3.481092
2.220;2.658983;3.500932
2.230;2.675106;3.524411
2.240;2.689905;3.550840
2.250;2.702641;3.579466
2.260;2.712730;3.609468
2.270;2.719888;3.639949
2.280;2.724127;3.669976
2.290;2.725594;3.698704
2.300;2.724335;3.725580
2.310;2.720079;3.750525
2.320;2.712151;3.773976
2.330;2.699528;3.796709
2.340;2.681070;3.819479
2.350;2.655863;3.842640
2.360;2.623617;3.865914
2.370;2.585000;3.888435
2.380;2.541729;3.909041
2.390;2.496330;3.926653
2.400;2.451613;3.940580
2.410;2.410042;3.950619
2.420;2.373234;3.957001
2.430;2.341748;3.960264
2.440;2.315168;3.961152
2.450;2.292406;3.960538
2.460;2.272062;3.959326
2.470;2.252741;3.958316
2.480;2.233301;3.958043
2.490;2.213032;3.958684
2.500;2.191810;3.960104
2.510;2.170162;3.962043
2.520;2.149180;3.964364
2.530;2.130217;3.967212
2.540;2.114443;3.970965
2.550;2.102444;3.976009
2.560;2.094073;3.982461
2.570;2.088619;3.990004
2.580;2.085193;3.997908
2.590;2.083082;4.005244
2.600;2.081920;4.011204
2.610;2.081638;4.015363
2.620;2.082299;4.017763
2.630;2.083947;4.018787
2.640;2.086502;4.018907
2.650;2.089739;4.018460
2.660;2.093323;4.017572
2.670;2.096902;4.016244
2.680;2.100194;4.014524
2.690;2.103052;4.012637
2.700;2.105439;4.010993
2.710;2.107346;4.010092
2.720;2.108671;4.010382
2.730;2.109114;4.012152
2.740;2.108145;4.015481
2.750;2.105054;4.020273
2.760;2.099074;4.026317
2.770;2.089555;4.033340
2.780;2.076118;4.041010
2.790;2.058755;4.048901
2.800;2.037816;4.056504
2.810;2.013869;4.063292
2.820;1.987470;4.068844
2.830;1.958940;4.072921
2.840;1.928273;4.075476
2.850;1.895275;4.076616
2.860;1.859893;4.076553
2.870;1.822562;4.075590
2.880;1.784383;4.074126
2.890;1.746999;4.072639
2.900;1.712225;4.071612
2.910;1.681570;4.071398
2.920;1.655855;4.072081
2.930;1.635055;4.073437
2.940;1.618377;4.075051
2.950;1.604481;4.076542
2.960;1.591728;4.077785
2.970;1.578405;4.078993
2.980;1.562928;4.080657
2.990;1.544083;4.083378
3.000;1.521285;4.087693
3.010;1.494788;4.093940
3.020;1.465715;4.102192
3.030;1.435834;4.112232
3.040;1.407095;4.123559
3.050;1.381093;4.135444
3.060;1.358666;4.147069
3.070;1.339778;4.157729
3.080;1.323710;4.167024
3.090;1.309455;4.174937
3.100;1.296147;4.181758
3.110;1.283385;4.187881
3.120;1.271389;4.193585
3.130;1.260931;4.198914
3.140;1.253075;4.203688
3.150;1.248792;4.207639
3.160;1.248581;4.210558
3.170;1.252235;4.212406
3.180;1.258838;4.213332
3.190;1.266967;4.213619
3.200;1.275013;4.213610
3.210;1.281465;4.213627
3.220;1.285111;4.213918
3.230;1.285135;4.214601
3.240;1.281166;4.215642
3.250;1.273297;4.216889
3.260;1.262056;4.218197
3.270;1.248314;4.219552
3.280;1.233124;4.221141
3.290;1.217485;4.223275
3.300;1.202117;4.226222
3.310;1.187292;4.230029
3.320;1.172821;4.234477
3.330;1.158192;4.239191
3.340;1.142839;4.243876
3.350;1.126441;4.248491
3.360;1.109168;4.253264
3.370;1.091784;4.258503
3.380;1.075564;4.264335
3.390;1.062035;4.270514
3.400;1.052629;4.276396
3.410;1.048379;4.281094
3.420;1.049718;4.283725
3.430;1.056433;4.283663
3.440;1.067743;4.280692
3.450;1.082475;4.275025
3.460;1.099301;4.267182
3.470;1.116993;4.257778
3.480;1.134661;4.247332
3.490;1.151866;4.236177
3.500;1.168594;4.224491
3.510;1.185086;4.212378
3.520;1.201645;4.199904
3.530;1.218503;4.187042
3.540;1.235851;4.173532
3.550;1.253987;4.158752
3.560;1.273495;4.141700
3.570;1.295356;4.121146
3.580;1.320927;4.095887
3.590;1.351798;4.065000
3.600;1.389495;4.028034
3.610;1.435097;3.985127
3.620;1.488830;3.937063
3.630;1.549773;3.885232
3.640;1.615815;3.831426
3.650;1.683900;3.777510
3.660;1.750516;3.725050
3.670;1.812308;3.675071
3.680;1.866682;3.627977
3.690;1.912261;3.583610
3.700;1.949095;3.541346
3.710;1.978530;3.500226
3.720;2.002728;3.459193
3.730;2.023967;3.417461
3.740;2.043919;3.374963
3.750;2.063181;3.332685
3.760;2.081190;3.292662
3.770;2.096574;3.257540
3.780;2.107751;3.229820
3.790;2.113543;3.211040
3.800;2.113577;3.201213
3.810;2.108381;3.198764
3.820;2.099197;3.200987
3.830;2.087638;3.204817
3.840;2.075348;3.207608
3.850;2.063753;3.207673
3.860;2.053950;3.204470
3.870;2.046700;3.198486
3.880;2.042480;3.190956
3.890;2.041544;3.183512
3.900;2.043959;3.177864
3.910;2.049602;3.175515
3.920;2.058113;3.177569
3.930;2.068868;3.184636
3.940;2.081016;3.196815
3.950;2.093630;3.213730
3.960;2.105901;3.234589
3.970;2.117309;3.258297
3.980;2.127654;3.283618
3.990;2.136954;3.309368
4.000;2.145228;3.334564
4.010;2.152291;3.358488
4.020;2.157645;3.380679
4.030;2.160528;3.400914
4.040;2.160087;3.419245
4.050;2.155577;3.436086
4.060;2.146510;3.452249
4.070;2.132715;3.468847
4.080;2.114351;3.487032
4.090;2.091907;3.507668
4.100;2.066174;3.531049
4.110;2.038160;3.556774
4.120;2.008967;3.583805
4.130;1.979660;3.610692
4.140;1.951176;3.635918
4.150;1.924265;3.658288
4.160;1.899451;3.677239
4.170;1.876998;3.692942
4.180;1.856931;3.706152
4.190;1.839108;3.717890
4.200;1.823359;3.729068
4.210;1.809606;3.740246
4.220;1.797876;3.751567
4.230;1.788183;3.762910
4.240;1.780338;3.774133
4.250;1.773810;3.785267
4.260;1.767738;3.796536
4.270;1.761099;3.808206
4.280;1.752967;3.820378
4.290;1.742760;3.832884
4.300;1.730358;3.845343
4.310;1.716062;3.857389
4.320;1.700405;3.868923
4.330;1.683881;3.880262
4.340;1.666689;3.892112
4.350;1.648583;3.905398
4.360;1.628890;3.921051
4.370;1.606724;3.939783
4.380;1.581386;3.961865
4.390;1.552858;3.986916
4.400;1.522189;4.013785
4.410;1.491566;4.040602
4.420;1.463915;4.065080
4.430;1.442162;4.085036
4.440;1.428427;4.098972
4.450;1.423490;4.106510
4.460;1.426691;4.108481
4.470;1.436239;4.106649
4.480;1.449758;4.103186
4.490;1.464864;4.100107
4.500;1.479605;4.098840
4.510;1.492714;4.100021
4.520;1.503646;4.103535
4.530;1.512435;4.108755
4.540;1.519403;4.114858
4.550;1.524841;4.121083
4.560;1.528769;4.126863
4.570;1.530894;4.131877
4.580;1.530754;4.136041
4.590;1.527937;4.139472
4.600;1.522264;4.142414
4.610;1.513856;4.145148
4.620;1.503111;4.147922
4.630;1.490604;4.150917
4.640;1.476993;4.154233
4.650;1.462960;4.157876
4.660;1.449184;4.161752
4.670;1.436339;4.165690
4.680;1.425067;4.169511
4.690;1.415921;4.173134
4.700;1.409305;4.176661
4.710;1.405432;4.180364
4.720;1.404326;4.184553
4.730;1.405858;4.189370
4.740;1.409786;4.194631
4.750;1.415783;4.199828
4.760;1.423439;4.204281
4.770;1.432247;4.207408
4.780;1.441579;4.208955
4.790;1.450693;4.209111
4.800;1.458740;4.208460
4.810;1.464790;4.207801
4.820;1.467860;4.207918
4.830;1.466973;4.209377
4.840;1.461279;4.212407
4.850;1.450234;4.216890
4.860;1.433820;4.222416
4.870;1.412705;4.228338
4.880;1.388248;4.233786
4.890;1.362286;4.237674
4.900;1.336776;4.238746
4.910;1.313446;4.235689
4.920;1.293572;4.227301
4.930;1.277933;4.212690
4.940;1.266894;4.191440
4.950;1.260523;4.163686
4.960;1.258702;4.130065
4.970;1.261232;4.091543
4.980;1.267934;4.049164
4.990;1.278745;4.003792
5.000;1.293762;3.955917
5.010;1.313224;3.905629
5.020;1.337454;3.852756
5.030;1.366766;3.797134
5.040;1.401379;3.738877
5.050;1.441368;3.678547
5.060;1.486659;3.617161
5.070;1.537039;3.556036
5.080;1.592157;3.496550
5.090;1.651494;3.439883
5.100;1.714310;3.386840
5.110;1.779624;3.337819
5.120;1.846258;3.292903
5.130;1.912930;3.252025
5.140;1.978376;3.215101
5.150;2.041439;3.182085
5.160;2.101128;3.153004
5.170;2.156658;3.128014
5.180;2.207455;3.107494
5.190;2.253091;3.092079
5.200;2.293165;3.082549
5.210;2.327203;3.079568
5.220;2.354714;3.083384
5.230;2.375414;3.093612
5.240;2.389528;3.109198
5.250;2.397988;3.128565
5.260;2.402400;3.149876
5.270;2.404782;3.171314
5.280;2.407162;3.191287
5.290;2.411187;3.208562
5.300;2.417830;3.222365
5.310;2.427282;3.232483
5.320;2.439036;3.239305
5.330;2.452133;3.243727
5.340;2.465506;3.246856
5.350;2.478315;3.249598
5.360;2.490166;3.252263
5.370;2.501150;3.254372
5.380;2.511664;3.254744
5.390;2.522113;3.251806
5.400;2.532585;3.244031
5.410;2.542687;3.230353
5.420;2.551605;3.210486
5.430;2.558379;3.185084
5.440;2.562252;3.155677
5.450;2.562911;3.124361
5.460;2.560513;3.093282
5.470;2.555509;3.064068
5.480;2.548387;3.037379
5.490;2.539498;3.012714
5.500;2.529036;2.988545
5.510;2.517184;2.962778
5.520;2.504302;2.933420
5.530;2.491043;2.899315
5.540;2.478310;2.860710
5.550;2.467057;2.819438
5.560;2.458008;2.778599
5.570;2.451387;2.741817
5.580;2.446753;2.712352
5.590;2.442971;2.692420
5.600;2.438346;2.682951
5.610;2.430903;2.683790
5.620;2.418801;2.694165
5.630;2.400756;2.713170
5.640;2.376343;2.740092
5.650;2.346032;2.774507
5.660;2.310920;2.816221
5.670;2.272262;2.865154
5.680;2.230994;2.921254
5.690;2.187456;2.984424
5.700;2.141406;3.054435
5.710;2.092340;3.130789
5.720;2.039990;3.212586
5.730;1.984813;3.298399
5.740;1.928246;3.386171
5.750;1.872575;3.473207
5.760;1.820386;3.556326
5.770;1.773784;3.632304
5.780;1.733669;3.698545
5.790;1.699381;3.753798
5.800;1.668853;3.798594
5.810;1.639239;3.835139
5.820;1.607822;3.866651
5.830;1.572935;3.896346
5.840;1.534569;3.926465
5.850;1.494443;3.957679
5.860;1.455424;3.989064
5.870;1.420510;4.018618
5.880;1.391723;4.044073
5.890;1.369392;4.063705
5.900;1.352066;4.076859
5.910;1.337039;4.084049
5.920;1.321219;4.086617
5.930;1.301999;4.086137
5.940;1.277879;4.083800
5.950;1.248691;4.079987
5.960;1.215431;4.074115
5.970;1.179762;4.064752
5.980;1.143358;4.049948
5.990;1.107296;4.027747
6.000;1.071694;3.996781
6.010;1.035690;3.956780
6.020;0.997772;3.908821
6.030;0.956319;3.855184
6.040;0.910197;3.798847
6.050;0.859210;3.742775
6.060;0.804288;3.689278
6.070;0.747302;3.639670
6.080;0.690572;3.594314
6.090;0.636205;3.552972
6.100;0.585517;3.515254
6.110;0.538735;3.480968
6.120;0.495084;3.450275
6.130;0.453181;3.423615
6.140;0.411576;3.401495
6.150;0.369221;3.384197
6.160;0.325718;3.371499
6.170;0.281319;3.362502
6.180;0.236750;3.355669
6.190;0.192957;3.349116
6.200;0.150870;3.341121
6.210;0.111252;3.330717
6.220;0.074689;3.318112
6.230;0.041670;3.304703
6.240;0.012678;3.292605
6.250;-0.011823;3.283861
6.260;-0.031555;3.279690
6.270;-0.046659;3.280119
6.280;-0.057862;3.284131
6.290;-0.066490;3.290176
6.300;-0.074282;3.296750
6.310;-0.083030;3.302733
6.320;-0.094111;3.307390
6.330;-0.108001;3.310133
6.340;-0.123973;3.310246
6.350;-0.140118;3.306733
6.360;-0.153755;3.298364
6.370;-0.162102;3.283953
6.380;-0.162975;3.262788
6.390;-0.155261;3.235080
6.400;-0.139029;3.202230
6.410;-0.115299;3.166738
6.420;-0.085596;3.131700
6.430;-0.051494;3.100047
6.440;-0.014293;3.073807
6.450;0.025068;3.053671
6.460;0.065885;3.039014
6.470;0.107443;3.028335
6.480;0.148831;3.019940
6.490;0.188946;3.012585
6.500;0.226725;3.005853
6.510;0.261503;3.000144
6.520;0.293313;2.996350
6.530;0.322917;2.995355
6.540;0.351539;2.997585
6.550;0.380404;3.002785
6.560;0.410344;3.010053
6.570;0.441658;3.018081
6.580;0.474273;3.025460
6.590;0.508080;3.030953
6.600;0.543250;3.033642
6.610;0.580370;3.032951
6.620;0.620368;3.028583
6.630;0.664236;3.020465
6.640;0.712681;3.008732
6.650;0.765829;2.993747
6.660;0.823106;2.976103
6.670;0.883363;2.956579
6.680;0.945223;2.936032
6.690;1.007519;2.915271
6.700;1.069637;2.894948
6.710;1.131624;2.875470
6.720;1.194044;2.856940
6.730;1.257641;2.839141
6.740;1.322980;2.821586
6.750;1.390164;2.803694
6.760;1.458693;2.785019
6.770;1.527491;2.765489
6.780;1.595055;2.745513
6.790;1.659689;2.725906
6.800;1.719752;2.707641
6.810;1.773870;2.691515
6.820;1.821100;2.677873
6.830;1.861014;2.666449
6.840;1.893729;2.656391
6.850;1.919828;2.646457
6.860;1.940181;2.635341
6.870;1.955710;2.622067
6.880;1.967195;2.606293
6.890;1.975186;2.588420
6.900;1.980057;2.569481
6.910;1.982144;2.550837
6.920;1.981891;2.533823
6.930;1.979909;2.519431
6.940;1.976935;2.508126
6.950;1.973722;2.499809
6.960;1.970926;2.493949
6.970;1.969044;2.489824
6.980;1.968369;2.486779
6.990;1.968901;2.484437
7.000;1.970206;2.482807
7.010;1.971267;2.482284
7.020;1.970434;2.483529
7.030;1.965533;2.487260
7.040;1.954146;2.493969
7.050;1.934027;2.503675
7.060;1.903590;2.515832
7.070;1.862381;2.529498
7.080;1.811346;2.543778
7.090;1.752763;2.558408
7.100;1.689767;2.574234
7.110;1.625590;2.593331
7.120;1.562758;2.618630
7.130;1.502518;2.653161
7.140;1.444666;2.699236
7.150;1.387792;2.757885
7.160;1.329901;2.828704
7.170;1.269260;2.910010
7.180;1.205244;2.999136
7.190;1.138949;3.092759
7.200;1.073270;3.187231
7.210;1.012352;3.278999
7.220;0.960501;3.365059
7.230;0.920903;3.443373
7.240;0.894654;3.513074
7.250;0.880472;3.574363
7.260;0.875201;3.628104
7.270;0.874829;3.675288
7.280;0.875592;3.716573
7.290;0.874767;3.752111
7.300;0.870976;3.781700
7.310;0.864029;3.805208
7.320;0.854475;3.823050
7.330;0.843056;3.836494
7.340;0.830240;3.847626
7.350;0.815972;3.858922
7.360;0.799687;3.872578
7.370;0.780589;3.889818
7.380;0.758084;3.910491
7.390;0.732216;3.933122
7.400;0.703901;3.955397
7.410;0.674849;3.974855
7.420;0.647146;3.989497
7.430;0.622650;3.998149
7.440;0.602452;4.000559
7.450;0.586605;3.997309
7.460;0.574221;3.989630
7.470;0.563863;3.979126
7.480;0.554081;3.967411
7.490;0.543886;3.955719
7.500;0.532999;3.944583
7.510;0.521775;3.933760
7.520;0.510816;3.922451
7.530;0.500454;3.909744
7.540;0.490373;3.895058
7.550;0.479581;3.878375
7.560;0.466773;3.860177
7.570;0.450927;3.841133
7.580;0.431807;3.821716
7.590;0.410138;3.801943
7.600;0.387373;3.781351
7.610;0.365230;3.759181
7.620;0.345217;3.734654
7.630;0.328316;3.707198
7.640;0.314899;3.676559
7.650;0.304807;3.642842
7.660;0.297544;3.606517
7.670;0.292519;3.568423
7.680;0.289280;3.529771
7.690;0.287671;3.492058
7.700;0.287851;3.456881
7.710;0.290172;3.425635
7.720;0.294977;3.399189
7.730;0.302393;3.377652
7.740;0.312213;3.360337
7.750;0.323934;3.345945
7.760;0.336921;3.332900
7.770;0.350614;3.319715
7.780;0.364658;3.305289
7.790;0.378864;3.289101
7.800;0.393048;3.271277
7.810;0.406825;3.252487
7.820;0.419518;3.233681
7.830;0.430225;3.215738
7.840;0.438038;3.199180
7.850;0.442324;3.184066
7.860;0.442970;3.170073
7.870;0.440533;3.156695
7.880;0.436214;3.143433
7.890;0.431643;3.129915
7.900;0.428499;3.115939
7.910;0.428119;3.101441
7.920;0.431274;3.086398
7.930;0.438211;3.070742
7.940;0.448921;3.054336
7.950;0.463499;3.037055
7.960;0.482421;3.018877
7.970;0.506673;2.999920
7.980;0.537680;2.980408
7.990;0.577065;2.960637
8.000;0.626255;2.940998
8.010;0.686043;2.922051
8.020;0.756224;2.904556
8.030;0.835408;2.889375
8.040;0.921070;2.877240
8.050;1.009815;2.868482
8.060;1.097792;2.862881
8.070;1.181161;2.859701
8.080;1.256539;2.857876
8.090;1.321403;2.856223
8.100;1.374446;2.853619
8.110;1.415805;2.849115
8.120;1.447092;2.842039
8.130;1.471101;2.832102
8.140;1.491212;2.819501
8.150;1.510619;2.804977
8.160;1.531590;2.789763
8.170;1.555021;2.775395
8.180;1.580443;2.763428
8.190;1.606459;2.755141
8.200;1.631435;2.751339
8.210;1.654171;2.752293
8.220;1.674322;2.757785
8.230;1.692475;2.767233
8.240;1.709908;2.779830
8.250;1.728157;2.794721
8.260;1.748555;2.811183
8.270;1.771863;2.828780
8.280;1.798087;2.847410
8.290;1.826463;2.867241
8.300;1.855614;2.888528
8.310;1.883825;2.911394
