Time[s];COPx[cm];COPy[cm]
0.010;-0.033954;-2.737427
0.020;-0.005869;-2.722662
0.030;0.021891;-2.708759
0.040;0.048888;-2.696504
0.050;0.074715;-2.686407
0.060;0.098967;-2.678617
0.070;0.121209;-2.672912
0.080;0.140979;-2.668754
0.090;0.157813;-2.665389
0.100;0.171278;-2.661963
0.110;0.180946;-2.657626
0.120;0.186347;-2.651638
0.130;0.186970;-2.643522
0.140;0.182376;-2.633209
0.150;0.172371;-2.621110
0.160;0.157122;-2.608007
0.170;0.137120;-2.594785
0.180;0.112980;-2.582092
0.190;0.085144;-2.570054
0.200;0.053587;-2.558101
0.210;0.017578;-2.544928
0.220;-0.024427;-2.528585
0.230;-0.074699;-2.506721
0.240;-0.135928;-2.476999
0.250;-0.210687;-2.437633
0.260;-0.300769;-2.387923
0.270;-0.406531;-2.328616
0.280;-0.526426;-2.261960
0.290;-0.656905;-2.191393
0.300;-0.792811;-2.120898
0.310;-0.928265;-2.054175
0.320;-1.057833;-1.993867
0.330;-1.177546;-1.941067
0.340;-1.285394;-1.895277
0.350;-1.381128;-1.854768
0.360;-1.465529;-1.817238
0.370;-1.539519;-1.780549
0.380;-1.603455;-1.743365
0.390;-1.656782;-1.705499
0.400;-1.698095;-1.667839
0.410;-1.725540;-1.631905
0.420;-1.737409;-1.599217
0.430;-1.732747;-1.570732
0.440;-1.711793;-1.546585
0.450;-1.676105;-1.526191
0.460;-1.628380;-1.508666
0.470;-1.572024;-1.493333
0.480;-1.510617;-1.480085
0.490;-1.447422;-1.469405
0.500;-1.385053;-1.462058
0.510;-1.325374;-1.458654
0.520;-1.269599;-1.459328
0.530;-1.218521;-1.463718
0.540;-1.172764;-1.471237
0.550;-1.132961;-1.481470
0.560;-1.099833;-1.494465
0.570;-1.074146;-1.510771
0.580;-1.056569;-1.531206
0.590;-1.047463;-1.556486
0.600;-1.046707;-1.586851
0.610;-1.053610;-1.621849
0.620;-1.066961;-1.660329
0.630;-1.085182;-1.700622
0.640;-1.106530;-1.740844
0.650;-1.129285;-1.779201
0.660;-1.151839;-1.814213
0.670;-1.172700;-1.844845
0.680;-1.190404;-1.870568
0.690;-1.203452;-1.891359
0.700;-1.210281;-1.907659
0.710;-1.209336;-1.920268
0.720;-1.199216;-1.930172
0.730;-1.178870;-1.938302
0.740;-1.147790;-1.945289
0.750;-1.106137;-1.951285
0.760;-1.054747;-1.955965
0.770;-0.995006;-1.958721
0.780;-0.928671;-1.958984
0.790;-0.857672;-1.956543
0.800;-0.783950;-1.951761
0.810;-0.709319;-1.945613
0.820;-0.635365;-1.939552
0.830;-0.563380;-1.935232
0.840;-0.494341;-1.934168
0.850;-0.428924;-1.937417
0.860;-0.367588;-1.945370
0.870;-0.310691;-1.957714
0.880;-0.258642;-1.973565
0.890;-0.212002;-1.991756
0.900;-0.171485;-2.011167
0.910;-0.137836;-2.030977
0.920;-0.111612;-2.050777
0.930;-0.092947;-2.070561
0.940;-0.081392;-2.090681
0.950;-0.075913;-2.111783
0.960;-0.075065;-2.134720
0.970;-0.077290;-2.160385
0.980;-0.081225;-2.189510
0.990;-0.085923;-2.222493
1.000;-0.090913;-2.259340
1.010;-0.096111;-2.299750
1.020;-0.101647;-2.343295
1.030;-0.107688;-2.389659
1.040;-0.114293;-2.438857
1.050;-0.121351;-2.491373
1.060;-0.128601;-2.548115
1.070;-0.135741;-2.610162
1.080;-0.142597;-2.678364
1.090;-0.149261;-2.752967
1.100;-0.156158;-2.833461
1.110;-0.163943;-2.918743
1.120;-0.173297;-3.007491
1.130;-0.184665;-3.098571
1.140;-0.198091;-3.191290
1.150;-0.213216;-3.285409
1.160;-0.229477;-3.380950
1.170;-0.246384;-3.477931
1.180;-0.263737;-3.576160
1.190;-0.281643;-3.675143
1.200;-0.300342;-3.774082
1.210;-0.319923;-3.871952
1.220;-0.340082;-3.967610
1.230;-0.360043;-4.059931
1.240;-0.378673;-4.147933
1.250;-0.394752;-4.230835
1.260;-0.407266;-4.308047
1.270;-0.415588;-4.379113
1.280;-0.419504;-4.443612
1.290;-0.419124;-4.501079
1.300;-0.414767;-4.550978
1.310;-0.406863;-4.592780
1.320;-0.395871;-4.626103
1.330;-0.382233;-4.650865
1.340;-0.366369;-4.667377
1.350;-0.348721;-4.676353
1.360;-0.329804;-4.678826
1.370;-0.310217;-4.675967
1.380;-0.290585;-4.668858
1.390;-0.271452;-4.658267
1.400;-0.253199;-4.644522
1.410;-0.236040;-4.627530
1.420;-0.220124;-4.606969
1.430;-0.205680;-4.582616
1.440;-0.193118;-4.554686
1.450;-0.183015;-4.524060
1.460;-0.175989;-4.492276
1.470;-0.172536;-4.461282
1.480;-0.172906;-4.432984
1.490;-0.177119;-4.408772
1.500;-0.185107;-4.389160
1.510;-0.196892;-4.373658
1.520;-0.212695;-4.360894
1.530;-0.232900;-4.348977
1.540;-0.257889;-4.336020
1.550;-0.287831;-4.320673
1.560;-0.322537;-4.302505
1.570;-0.361443;-4.282075
1.580;-0.403741;-4.260683
1.590;-0.448572;-4.239899
1.600;-0.495249;-4.221101
1.610;-0.543416;-4.205176
1.620;-0.593133;-4.192477
1.630;-0.644832;-4.182978
1.640;-0.699136;-4.176517
1.650;-0.756547;-4.172992
1.660;-0.817110;-4.172462
1.670;-0.880169;-4.175110
1.680;-0.944325;-4.181082
1.690;-1.007597;-4.190268
1.700;-1.067711;-4.202167
1.710;-1.122438;-4.215949
1.720;-1.169867;-4.230730
1.730;-1.208613;-4.245912
1.740;-1.237921;-4.261364
1.750;-1.257716;-4.277314
1.760;-1.268548;-4.294010
1.770;-1.271447;-4.311369
1.780;-1.267693;-4.328819
1.790;-1.258603;-4.345426
1.800;-1.245381;-4.360219
1.810;-1.229067;-4.372538
1.820;-1.210566;-4.382232
1.830;-1.190678;-4.389596
1.840;-1.170129;-4.395087
1.850;-1.149575;-4.398935
1.860;-1.129629;-4.400857
1.870;-1.110930;-4.400034
1.880;-1.094206;-4.395350
1.890;-1.080289;-4.385790
1.900;-1.070037;-4.370801
1.910;-1.064188;-4.350485
1.920;-1.063199;-4.325588
1.930;-1.067159;-4.297317
1.940;-1.075780;-4.267086
1.950;-1.088492;-4.236243
1.960;-1.104566;-4.205877
1.970;-1.123238;-4.176718
1.980;-1.143781;-4.149133
1.990;-1.165518;-4.123181
2.000;-1.187803;-4.098688
2.010;-1.210004;-4.075341
2.020;-1.231523;-4.052825
2.030;-1.251868;-4.030986
2.040;-1.270725;-4.009971
2.050;-1.287990;-3.990290
2.060;-1.303737;-3.972758
2.070;-1.318105;-3.958339
2.080;-1.331149;-3.947906
2.090;-1.342725;-3.941974
2.100;-1.352462;-3.940500
2.110;-1.359832;-3.942850
2.120;-1.364275;-3.948022
2.130;-1.365318;-3.955036
2.140;-1.362653;-3.963310
2.150;-1.356138;-3.972838
2.160;-1.345716;-3.984091
2.170;-1.331279;-3.997750
2.180;-1.312555;-4.014420
2.190;-1.289080;-4.034448
2.200;-1.260307;-4.057906
2.210;-1.225812;-4.084703
2.220;-1.185522;-4.114770
2.230;-1.139845;-4.148270
2.240;-1.089605;-4.185722
2.250;-1.035807;-4.227975
2.260;-0.979332;-4.275955
2.270;-0.920711;-4.330258
2.280;-0.860090;-4.390699
2.290;-0.797357;-4.455991
2.300;-0.732351;-4.523661
2.310;-0.665026;-4.590329
2.320;-0.595566;-4.652312
2.330;-0.524473;-4.706392
2.340;-0.452652;-4.750477
2.350;-0.381441;-4.783944
2.360;-0.312512;-4.807549
2.370;-0.247600;-4.823005
2.380;-0.188144;-4.832380
2.390;-0.134989;-4.837511
2.400;-0.088292;-4.839569
2.410;-0.047648;-4.838876
2.420;-0.012369;-4.834962
2.430;0.018244;-4.826808
2.440;0.044734;-4.813188
2.450;0.067461;-4.793039
2.460;0.086694;-4.765767
2.470;0.102738;-4.731414
2.480;0.116054;-4.690674
2.490;0.127322;-4.644736
2.500;0.137437;-4.595044
2.510;0.147428;-4.543008
2.520;0.158331;-4.489767
2.530;0.171061;-4.436021
2.540;0.186316;-4.381985
2.550;0.204531;-4.327433
2.560;0.225861;-4.271832
2.570;0.250234;-4.214477
2.580;0.277439;-4.154605
2.590;0.307275;-4.091474
2.600;0.339703;-4.024429
2.610;0.374942;-3.952990
2.620;0.413465;-3.876976
2.630;0.455880;-3.796657
2.640;0.502728;-3.712845
2.650;0.554289;-3.626843
2.660;0.610469;-3.540216
2.670;0.670803;-3.454477
2.680;0.734533;-3.370858
2.690;0.800730;-3.290237
2.700;0.868414;-3.213174
2.710;0.936663;-3.139964
2.720;1.004691;-3.070633
2.730;1.071854;-3.004919
2.740;1.137603;-2.942290
2.750;1.201391;-2.882038
2.760;1.262618;-2.823427
2.770;1.320649;-2.765842
2.780;1.374914;-2.708891
2.790;1.425004;-2.652418
2.800;1.470699;-2.596485
2.810;1.511893;-2.541348
2.820;1.548484;-2.487419
2.830;1.580297;-2.435214
2.840;1.607080;-2.385222
2.850;1.628563;-2.337732
2.860;1.644511;-2.292693
2.870;1.654767;-2.249704
2.880;1.659249;-2.208211
2.890;1.657939;-2.167832
2.900;1.650864;-2.128689
2.910;1.638042;-2.091553
2.920;1.619416;-2.057715
2.930;1.594762;-2.028552
2.940;1.563631;-2.004925
2.950;1.525353;-1.986653
2.960;1.479117;-1.972324
2.970;1.424093;-1.959596
2.980;1.359560;-1.945910
2.990;1.285054;-1.929361
3.000;1.200561;-1.909385
3.010;1.106745;-1.886996
3.020;1.005057;-1.864505
3.030;0.897593;-1.844866
3.040;0.786651;-1.830858
3.050;0.674177;-1.824336
3.060;0.561364;-1.825736
3.070;0.448588;-1.833962
3.080;0.335669;-1.846678
3.090;0.222312;-1.860931
3.100;0.108570;-1.873930
3.110;-0.004832;-1.883766
3.120;-0.116390;-1.889833
3.130;-0.223986;-1.892761
3.140;-0.325282;-1.893906
3.150;-0.418217;-1.894635
3.160;-0.501456;-1.895736
3.170;-0.574649;-1.897198
3.180;-0.638470;-1.898357
3.190;-0.694502;-1.898261
3.200;-0.745005;-1.896055
3.210;-0.792592;-1.891270
3.220;-0.839789;-1.883977
3.230;-0.888504;-1.874808
3.240;-0.939539;-1.864857
3.250;-0.992322;-1.855508
3.260;-1.045051;-1.848236
3.270;-1.095272;-1.844386
3.280;-1.140755;-1.844933
3.290;-1.180336;-1.850265
3.300;-1.214402;-1.860068
3.310;-1.244863;-1.873401
3.320;-1.274649;-1.888973
3.330;-1.306929;-1.905535
3.340;-1.344298;-1.922224
3.350;-1.388136;-1.938714
3.360;-1.438282;-1.955142
3.370;-1.493110;-1.971917
3.380;-1.549962;-1.989536
3.390;-1.605816;-2.008494
3.400;-1.658024;-2.029281
3.410;-1.704887;-2.052436
3.420;-1.745902;-2.078575
3.430;-1.781627;-2.108330
3.440;-1.813237;-2.142190
3.450;-1.841977;-2.180305
3.460;-1.868709;-2.222382
3.470;-1.893684;-2.267769
3.480;-1.916535;-2.315743
3.490;-1.936422;-2.365884
3.500;-1.952232;-2.418333
3.510;-1.962741;-2.473846
3.520;-1.966697;-2.533635
3.530;-1.962853;-2.599060
3.540;-1.950002;-2.671277
3.550;-1.927061;-2.750900
3.560;-1.893243;-2.837760
3.570;-1.848282;-2.930816
3.580;-1.792612;-3.028256
3.590;-1.727412;-3.127764
3.600;-1.654459;-3.226856
3.610;-1.575824;-3.323172
3.620;-1.493505;-3.414681
3.630;-1.409144;-3.499798
3.640;-1.323928;-3.577451
3.650;-1.238686;-3.647104
3.660;-1.154100;-3.708706
3.670;-1.070917;-3.762616
3.680;-0.990097;-3.809495
3.690;-0.912855;-3.850197
3.700;-0.840619;-3.885665
3.710;-0.774908;-3.916834
3.720;-0.717162;-3.944513
3.730;-0.668564;-3.969260
3.740;-0.629914;-3.991261
3.750;-0.601622;-4.010310
3.760;-0.583794;-4.025931
3.770;-0.576370;-4.037635
3.780;-0.579206;-4.045208
3.790;-0.592054;-4.048912
3.800;-0.614463;-4.049525
3.810;-0.645675;-4.048194
3.820;-0.684606;-4.046143
3.830;-0.729922;-4.044357
3.840;-0.780163;-4.043338
3.850;-0.833873;-4.043000
3.860;-0.889677;-4.042687
3.870;-0.946324;-4.041309
3.880;-1.002678;-4.037563
3.890;-1.057698;-4.030240
3.900;-1.110410;-4.018528
3.910;-1.159897;-4.002231
3.920;-1.205284;-3.981808
3.930;-1.245706;-3.958179
3.940;-1.280286;-3.932381
3.950;-1.308167;-3.905207
3.960;-1.328621;-3.877018
3.970;-1.341210;-3.847843
3.980;-1.345918;-3.817714
3.990;-1.343187;-3.787012
4.000;-1.333833;-3.756588
4.010;-1.318902;-3.727554
4.020;-1.299541;-3.700842
4.030;-1.276878;-3.676795
4.040;-1.251918;-3.655020
4.050;-1.225425;-3.634572
4.060;-1.197834;-3.614339
4.070;-1.169246;-3.593404
4.080;-1.139562;-3.571246
4.090;-1.108728;-3.547735
4.100;-1.077010;-3.523011
4.110;-1.045160;-3.497315
4.120;-1.014348;-3.470876
4.130;-0.985902;-3.443889
4.140;-0.960943;-3.416562
4.150;-0.940084;-3.389144
4.160;-0.923286;-3.361915
4.170;-0.909914;-3.335152
4.180;-0.898952;-3.309121
4.190;-0.889305;-3.284087
4.200;-0.880060;-3.260350
4.210;-0.870665;-3.238295
4.220;-0.860980;-3.218440
4.230;-0.851236;-3.201404
4.240;-0.841941;-3.187760
4.250;-0.833739;-3.177789
4.260;-0.827264;-3.171276
4.270;-0.823022;-3.167449
4.280;-0.821337;-3.165120
4.290;-0.822349;-3.162957
4.300;-0.826044;-3.159786
4.310;-0.832325;-3.154836
4.320;-0.841089;-3.147870
4.330;-0.852329;-3.139198
4.340;-0.866198;-3.129533
4.350;-0.883003;-3.119714
4.360;-0.903100;-3.110372
4.370;-0.926745;-3.101676
4.380;-0.953966;-3.093252
4.390;-0.984552;-3.084305
4.400;-1.018130;-3.073890
4.410;-1.054268;-3.061198
4.420;-1.092546;-3.045761
4.430;-1.132557;-3.027508
4.440;-1.173860;-3.006704
4.450;-1.215918;-2.983827
4.460;-1.258058;-2.959453
4.470;-1.299444;-2.934210
4.480;-1.339089;-2.908786
4.490;-1.375891;-2.883946
4.500;-1.408735;-2.860497
4.510;-1.436655;-2.839151
4.520;-1.459010;-2.820345
4.530;-1.475622;-2.804085
4.540;-1.486783;-2.789876
4.550;-1.493117;-2.776775
4.560;-1.495335;-2.763550
4.570;-1.494023;-2.748896
4.580;-1.489534;-2.731656
4.590;-1.482043;-2.710996
4.600;-1.471721;-2.686506
4.610;-1.458922;-2.658195
4.620;-1.444308;-2.626388
4.630;-1.428809;-2.591568
4.640;-1.413446;-2.554274
4.650;-1.399093;-2.515079
4.660;-1.386313;-2.474667
4.670;-1.375354;-2.433916
4.680;-1.366267;-2.393915
4.690;-1.359055;-2.355877
4.700;-1.353768;-2.320978
4.710;-1.350506;-2.290180
4.720;-1.349392;-2.264098
4.730;-1.350547;-2.242975
4.740;-1.354089;-2.226753
4.750;-1.360164;-2.215210
4.760;-1.368969;-2.208066
4.770;-1.380762;-2.205042
4.780;-1.395815;-2.205858
4.790;-1.414299;-2.210228
4.800;-1.436110;-2.217868
4.810;-1.460710;-2.228535
4.820;-1.487019;-2.242043
4.830;-1.513411;-2.258273
4.840;-1.537858;-2.277178
4.850;-1.558204;-2.298807
4.860;-1.572528;-2.323308
4.870;-1.579482;-2.350893
4.880;-1.578475;-2.381735
4.890;-1.569669;-2.415877
4.900;-1.553798;-2.453199
4.910;-1.531900;-2.493481
4.920;-1.505072;-2.536494
4.930;-1.474284;-2.582013
4.940;-1.440271;-2.629709
4.950;-1.403487;-2.678975
4.960;-1.364099;-2.728816
4.970;-1.322030;-2.777922
4.980;-1.277038;-2.824952
4.990;-1.228844;-2.868942
5.000;-1.177303;-2.909664
5.010;-1.122561;-2.947766
5.020;-1.065129;-2.984594
5.030;-1.005838;-3.021736
5.040;-0.945692;-3.060453
5.050;-0.885679;-3.101263
5.060;-0.826629;-3.143848
5.070;-0.769131;-3.187358
5.080;-0.713524;-3.230897
5.090;-0.659936;-3.273942
5.100;-0.608374;-3.316494
5.110;-0.558852;-3.358936
5.120;-0.511543;-3.401758
5.130;-0.466863;-3.445296
5.140;-0.425424;-3.489608
5.150;-0.387850;-3.534456
5.160;-0.354537;-3.579380
5.170;-0.325493;-3.623794
5.180;-0.300342;-3.667112
5.190;-0.278477;-3.708860
5.200;-0.259295;-3.748728
5.210;-0.242420;-3.786505
5.220;-0.227818;-3.821962
5.230;-0.215792;-3.854775
5.240;-0.206863;-3.884591
5.250;-0.201603;-3.911199
5.260;-0.200437;-3.934681
5.270;-0.203494;-3.955457
5.280;-0.210535;-3.974182
5.290;-0.221015;-3.991540
5.300;-0.234291;-4.008045
5.310;-0.249888;-4.023931
5.320;-0.267716;-4.039171
5.330;-0.288143;-4.053601
5.340;-0.311918;-4.067130
5.350;-0.339987;-4.079964
5.360;-0.373288;-4.092779
5.370;-0.412600;-4.106780
5.380;-0.458505;-4.123632
5.390;-0.511481;-4.145293
5.400;-0.572111;-4.173756
5.410;-0.641285;-4.210705
5.420;-0.720264;-4.257144
5.430;-0.810425;-4.313080
5.440;-0.912700;-4.377348
5.450;-1.026877;-4.447648
5.460;-1.151095;-4.520840
5.470;-1.281844;-4.593504
5.480;-1.414600;-4.662658
5.490;-1.544935;-4.726384
5.500;-1.669640;-4.784119
5.510;-1.787353;-4.836490
5.520;-1.898356;-4.884802
5.530;-2.003673;-4.930356
5.540;-2.103944;-4.973849
5.550;-2.198618;-5.015029
5.560;-2.285801;-5.052740
5.570;-2.362767;-5.085328
5.580;-2.426849;-5.111262
5.590;-2.476318;-5.129664
5.600;-2.510894;-5.140545
5.610;-2.531758;-5.144664
5.620;-2.541157;-5.143155
5.630;-2.541829;-5.137118
5.640;-2.536480;-5.127315
5.650;-2.527440;-5.114034
5.660;-2.516542;-5.097071
5.670;-2.505147;-5.075759
5.680;-2.494242;-5.048973
5.690;-2.484558;-5.015149
5.700;-2.476649;-4.972429
5.710;-2.470949;-4.918984
5.720;-2.467793;-4.853486
5.730;-2.467416;-4.775546
5.740;-2.469887;-4.685928
5.750;-2.475016;-4.586419
5.760;-2.482234;-4.479402
5.770;-2.490559;-4.367303
5.780;-2.498645;-4.252170
5.790;-2.504926;-4.135511
5.800;-2.507815;-4.018364
5.810;-2.505910;-3.901497
5.820;-2.498203;-3.785652
5.830;-2.484203;-3.671790
5.840;-2.463975;-3.561289
5.850;-2.438057;-3.456009
5.860;-2.407301;-3.358155
5.870;-2.372668;-3.269940
5.880;-2.335038;-3.193163
5.890;-2.295083;-3.128834
5.900;-2.253289;-3.076952
5.910;-2.210108;-3.036510
5.920;-2.166222;-3.005706
5.930;-2.122749;-2.982309
5.940;-2.081313;-2.964056
5.950;-2.043891;-2.948968
5.960;-2.012494;-2.935531
5.970;-1.988782;-2.922761
5.980;-1.973763;-2.910153
5.990;-1.967667;-2.897538
6.000;-1.970033;-2.884880
6.010;-1.979928;-2.872100
6.020;-1.996184;-2.859029
6.030;-2.017559;-2.845478
6.040;-2.042789;-2.831352
6.050;-2.070585;-2.816720
6.060;-2.099643;-2.801808
6.070;-2.128676;-2.786938
6.080;-2.156476;-2.772436
6.090;-2.181941;-2.758534
6.100;-2.204088;-2.745301
6.110;-2.222060;-2.732640
6.120;-2.235161;-2.720339
6.130;-2.242894;-2.708132
6.140;-2.244995;-2.695742
6.150;-2.241447;-2.682919
6.160;-2.232518;-2.669498
6.170;-2.218790;-2.655443
6.180;-2.201154;-2.640881
6.190;-2.180729;-2.626055
6.200;-2.158722;-2.611226
6.210;-2.136263;-2.596534
6.220;-2.114287;-2.581896
6.230;-2.093497;-2.566981
6.240;-2.074431;-2.551317
6.250;-2.057573;-2.534496
6.260;-2.043464;-2.516392
6.270;-2.032706;-2.497274
6.280;-2.025841;-2.477753
6.290;-2.023158;-2.458611
6.300;-2.024554;-2.440591
6.310;-2.029513;-2.424206
6.320;-2.037211;-2.409595
6.330;-2.046677;-2.396471
6.340;-2.056925;-2.384199
6.350;-2.067009;-2.372016
6.360;-2.076027;-2.359325
6.370;-2.083101;-2.345958
6.380;-2.087407;-2.332285
6.390;-2.088240;-2.319129
6.400;-2.085075;-2.307539
6.410;-2.077622;-2.298557
6.420;-2.065835;-2.293067
6.430;-2.049920;-2.291719
6.440;-2.030333;-2.294899
6.450;-2.007767;-2.302717
6.460;-1.983081;-2.315050
6.470;-1.957184;-2.331654
6.480;-1.930851;-2.352336
6.490;-1.904561;-2.377136
6.500;-1.878395;-2.406476
6.510;-1.852034;-2.441203
6.520;-1.824862;-2.482455
6.530;-1.796148;-2.531326
6.540;-1.765274;-2.588396
6.550;-1.731946;-2.653284
6.560;-1.696306;-2.724437
6.570;-1.658903;-2.799279
6.580;-1.620541;-2.874721
6.590;-1.582058;-2.947849
6.600;-1.544132;-3.016520
6.610;-1.507189;-3.079647
6.620;-1.471443;-3.137106
6.630;-1.437033;-3.189353
6.640;-1.404213;-3.236930
6.650;-1.373490;-3.280126
6.660;-1.345650;-3.318907
6.670;-1.321678;-3.353112
6.680;-1.302636;-3.382694
6.690;-1.289539;-3.407836
6.700;-1.283198;-3.428894
6.710;-1.284028;-3.446259
6.720;-1.291903;-3.460265
6.730;-1.306157;-3.471185
6.740;-1.325774;-3.479268
6.750;-1.349657;-3.484797
6.760;-1.376856;-3.488118
6.770;-1.406654;-3.489596
6.780;-1.438552;-3.489517
6.790;-1.472227;-3.487985
6.800;-1.507500;-3.484902
6.810;-1.544298;-3.480065
6.820;-1.582555;-3.473327
6.830;-1.622072;-3.464730
6.840;-1.662354;-3.454568
6.850;-1.702533;-3.443369
6.860;-1.741399;-3.431788
6.870;-1.777576;-3.420403
6.880;-1.809777;-3.409447
6.890;-1.837051;-3.398596
6.900;-1.858936;-3.386922
6.910;-1.875461;-3.373090
6.920;-1.887029;-3.355783
6.930;-1.894248;-3.334141
6.940;-1.897794;-3.308031
6.950;-1.898353;-3.277992
6.960;-1.896644;-3.244902
6.970;-1.893449;-3.209579
6.980;-1.889588;-3.172507
6.990;-1.885828;-3.133816
7.000;-1.882756;-3.093470
7.010;-1.880688;-3.051529
7.020;-1.879654;-3.008371
7.030;-1.879485;-2.964792
7.040;-1.879982;-2.921998
7.050;-1.881088;-2.881454
7.060;-1.882954;-2.844645
7.070;-1.885858;-2.812807
7.080;-1.890014;-2.786734
7.090;-1.895418;-2.766743
7.100;-1.901818;-2.752765
7.110;-1.908841;-2.744475
7.120;-1.916176;-2.741386
7.130;-1.923703;-2.742890
7.140;-1.931507;-2.748287
7.150;-1.939775;-2.756842
7.160;-1.948662;-2.767874
7.170;-1.958247;-2.780823
7.180;-1.968628;-2.795279
7.190;-1.980120;-2.810932
7.200;-1.993462;-2.827513
7.210;-2.009904;-2.844781
7.220;-2.031108;-2.862587
7.230;-2.058849;-2.880967
7.240;-2.094559;-2.900138
7.250;-2.138823;-2.920358
7.260;-2.190974;-2.941679
7.270;-2.248956;-2.963764
7.280;-2.309587;-2.985861
7.290;-2.369224;-3.006988
7.300;-2.424584;-3.026219
7.310;-2.473409;-3.042935
7.320;-2.514733;-3.056935
7.330;-2.548703;-3.068403
7.340;-2.576107;-3.077765
7.350;-2.597828;-3.085515
7.360;-2.614377;-3.092092
7.370;-2.625606;-3.097856
7.380;-2.630640;-3.103151
7.390;-2.628012;-3.108355
7.400;-2.616004;-3.113836
7.410;-2.593131;-3.119808
7.420;-2.558668;-3.126193
7.430;-2.513047;-3.132564
7.440;-2.457990;-3.138208
7.450;-2.396305;-3.142261
7.460;-2.331432;-3.143888
7.470;-2.266864;-3.142454
7.480;-2.205629;-3.137684
7.490;-2.149992;-3.129727
7.500;-2.101394;-3.119085
7.510;-2.060590;-3.106429
7.520;-2.027826;-3.092337
7.530;-2.002988;-3.077077
7.540;-1.985678;-3.060494
7.550;-1.975261;-3.042061
7.560;-1.970924;-3.021099
7.570;-1.971785;-2.997051
7.580;-1.977028;-2.969674
7.590;-1.985992;-2.939080
7.600;-1.998165;-2.905646
7.610;-2.013045;-2.869908
7.620;-2.029955;-2.832488
7.630;-2.047888;-2.794089
7.640;-2.065494;-2.755524
7.650;-2.081238;-2.717702
7.660;-2.093647;-2.681537
7.670;-2.101567;-2.647795
7.680;-2.104330;-2.616952
7.690;-2.101805;-2.589145
7.700;-2.094381;-2.564230
7.710;-2.082904;-2.541921
