Time[s];COPx[cm];COPy[cm]
0.010;0.575218;-0.897244
0.020;0.586556;-0.892376
0.030;0.595759;-0.885321
0.040;0.601380;-0.874359
0.050;0.602974;-0.858507
0.060;0.601107;-0.837597
0.070;0.597033;-0.812119
0.080;0.592196;-0.782939
0.090;0.587752;-0.751016
0.100;0.584297;-0.717209
0.110;0.581857;-0.682199
0.120;0.580130;-0.646455
0.130;0.578835;-0.610230
0.140;0.578030;-0.573586
0.150;0.578274;-0.536456
0.160;0.580612;-0.498777
0.170;0.586361;-0.460631
0.180;0.596787;-0.422357
0.190;0.612724;-0.384550
0.200;0.634242;-0.347970
0.210;0.660444;-0.313405
0.220;0.689469;-0.281559
0.230;0.718736;-0.253020
0.240;0.745434;-0.228274
0.250;0.767138;-0.207693
0.260;0.782380;-0.191443
0.270;0.790977;-0.179347
0.280;0.793996;-0.170761
0.290;0.793398;-0.164583
0.300;0.791473;-0.159384
0.310;0.790233;-0.153650
0.320;0.790914;-0.146046
0.330;0.793722;-0.135598
0.340;0.797882;-0.121756
0.350;0.801983;-0.104327
0.360;0.804471;-0.083357
0.370;0.804110;-0.059050
0.380;0.800264;-0.031747
0.390;0.792925;-0.001948
0.400;0.782519;0.029681
0.410;0.769567;0.062346
0.420;0.754372;0.095237
0.430;0.736836;0.127666
0.440;0.716512;0.159181
0.450;0.692845;0.189596
0.460;0.665495;0.218918
0.470;0.634597;0.247175
0.480;0.600820;0.274209
0.490;0.565201;0.299542
0.500;0.528817;0.322389
0.510;0.492465;0.341835
0.520;0.456503;0.357109
0.530;0.420947;0.367832
0.540;0.385743;0.374149
0.550;0.351044;0.376717
0.560;0.317298;0.376549
0.570;0.285075;0.374768
0.580;0.254730;0.372348
0.590;0.226071;0.369926
0.600;0.198235;0.367751
0.610;0.169804;0.365734
0.620;0.139161;0.363513
0.630;0.104965;0.360472
0.640;0.066598;0.355729
0.650;0.024454;0.348137
0.660;-0.020035;0.336394
0.670;-0.064642;0.319276
0.680;-0.106815;0.295954
0.690;-0.144233;0.266287
0.700;-0.175299;0.230975
0.710;-0.199399;0.191515
0.720;-0.216919;0.149930
0.730;-0.229051;0.108341
0.740;-0.237496;0.068500
0.750;-0.244132;0.031438
0.760;-0.250668;-0.002640
0.770;-0.258291;-0.034168
0.780;-0.267389;-0.063826
0.790;-0.277411;-0.092143
0.800;-0.286954;-0.119290
0.810;-0.294053;-0.145160
0.820;-0.296626;-0.169638
0.830;-0.292919;-0.192880
0.840;-0.281818;-0.215383
0.850;-0.262937;-0.237798
0.860;-0.236495;-0.260521
0.870;-0.203079;-0.283309
0.880;-0.163393;-0.305101
0.890;-0.118051;-0.324188
0.900;-0.067496;-0.338705
0.910;-0.012057;-0.347267
0.920;0.047850;-0.349501
0.930;0.111486;-0.346218
0.940;0.177616;-0.339152
0.950;0.244521;-0.330366
0.960;0.310177;-0.321600
0.970;0.372559;-0.313789
0.980;0.429951;-0.306878
0.990;0.481196;-0.299928
1.000;0.525841;-0.291488
1.010;0.564177;-0.280113
1.020;0.597127;-0.264878
1.030;0.625978;-0.245669
1.040;0.651947;-0.223123
1.050;0.675727;-0.198248
1.060;0.697163;-0.171950
1.070;0.715264;-0.144701
1.080;0.728550;-0.116484
1.090;0.735654;-0.086982
1.100;0.735928;-0.055881
1.110;0.729831;-0.023137
1.120;0.718955;0.010903
1.130;0.705690;0.045530
1.140;0.692677;0.079828
1.150;0.682222;0.112864
1.160;0.675853;0.143815
1.170;0.674114;0.171999
1.180;0.676584;0.196805
1.190;0.682056;0.217627
1.200;0.688787;0.233924
1.210;0.694757;0.245402
1.220;0.697944;0.252231
1.230;0.696578;0.255108
1.240;0.689364;0.255104
1.250;0.675608;0.253359
1.260;0.655233;0.250763
1.270;0.628673;0.247749
1.280;0.596685;0.244250
1.290;0.560157;0.239806
1.300;0.519975;0.233778
1.310;0.477023;0.225534
1.320;0.432294;0.214524
1.330;0.387035;0.200174
1.340;0.342783;0.181685
1.350;0.301219;0.157888
1.360;0.263858;0.127336
1.370;0.231716;0.088728
1.380;0.205135;0.041601
1.390;0.183808;-0.012994
1.400;0.166977;-0.072194
1.410;0.153680;-0.131666
1.420;0.142949;-0.186538
1.430;0.133885;-0.232594
1.440;0.125641;-0.267268
1.450;0.117321;-0.290145
1.460;0.107919;-0.302859
1.470;0.096370;-0.308515
1.480;0.081773;-0.310828
1.490;0.063734;-0.313146
1.500;0.042647;-0.317582
1.510;0.019725;-0.324473
1.520;-0.003290;-0.332411
1.530;-0.024649;-0.338873
1.540;-0.043114;-0.341266
1.550;-0.058259;-0.337985
1.560;-0.070437;-0.329061
1.570;-0.080451;-0.316166
1.580;-0.089076;-0.302000
1.590;-0.096636;-0.289323
1.600;-0.102789;-0.280014
1.610;-0.106594;-0.274506
1.620;-0.106838;-0.271763
1.630;-0.102497;-0.269783
1.640;-0.093171;-0.266376
1.650;-0.079339;-0.259884
1.660;-0.062336;-0.249576
1.670;-0.044058;-0.235640
1.680;-0.026502;-0.218845
1.690;-0.011322;-0.200062
1.700;0.000457;-0.179873
1.710;0.008484;-0.158404
1.720;0.012960;-0.135395
1.730;0.014445;-0.110410
1.740;0.013711;-0.083037
1.750;0.011646;-0.053017
1.760;0.009207;-0.020297
1.770;0.007369;0.014945
1.780;0.007040;0.052273
1.790;0.008936;0.090971
1.800;0.013444;0.130079
1.810;0.020510;0.168521
1.820;0.029620;0.205283
1.830;0.039882;0.239562
1.840;0.050186;0.270828
1.850;0.059389;0.298808
1.860;0.066460;0.323443
1.870;0.070600;0.344877
1.880;0.071318;0.363433
1.890;0.068498;0.379570
1.900;0.062428;0.393784
1.910;0.053806;0.406495
1.920;0.043656;0.417951
1.930;0.033163;0.428198
1.940;0.023448;0.437084
1.950;0.015373;0.444271
1.960;0.009448;0.449235
1.970;0.005828;0.451286
1.980;0.004368;0.449636
1.990;0.004662;0.443555
2.000;0.006072;0.432589
2.010;0.007772;0.416715
2.020;0.008844;0.396328
2.030;0.008408;0.371967
2.040;0.005777;0.343834
2.050;0.000587;0.311325
2.060;-0.007115;0.272821
2.070;-0.016831;0.225953
2.080;-0.027666;0.168253
2.090;-0.038438;0.097975
2.100;-0.047852;0.014791
2.110;-0.054672;-0.079850
2.120;-0.057899;-0.182766
2.130;-0.056932;-0.289430
2.140;-0.051744;-0.394601
2.150;-0.043006;-0.493050
2.160;-0.032081;-0.580269
2.170;-0.020774;-0.653027
2.180;-0.010857;-0.709710
2.190;-0.003508;-0.750370
2.200;0.001118;-0.776492
2.210;0.004047;-0.790529
2.220;0.007301;-0.795253
2.230;0.013420;-0.793095
2.240;0.024783;-0.785624
2.250;0.042907;-0.773351
2.260;0.067903;-0.755932
2.270;0.098293;-0.732695
2.280;0.131299;-0.703285
2.290;0.163580;-0.668157
2.300;0.192204;-0.628737
2.310;0.215564;-0.587203
2.320;0.233880;-0.545999
2.330;0.249067;-0.507289
2.340;0.263978;-0.472532
2.350;0.281292;-0.442288
2.360;0.302466;-0.416247
2.370;0.327133;-0.393406
2.380;0.353138;-0.372352
2.390;0.377138;-0.351585
2.400;0.395551;-0.329868
2.410;0.405539;-0.306511
2.420;0.405760;-0.281520
2.430;0.396674;-0.255523
2.440;0.380340;-0.229536
2.450;0.359789;-0.204666
2.460;0.338191;-0.181859
2.470;0.318101;-0.161712
2.480;0.301015;-0.144350
2.490;0.287335;-0.129396
2.500;0.276670;-0.116083
2.510;0.268264;-0.103490
2.520;0.261325;-0.090832
2.530;0.255163;-0.077675
2.540;0.249164;-0.064029
2.550;0.242696;-0.050299
2.560;0.235068;-0.037129
2.570;0.225546;-0.025183
2.580;0.213436;-0.014928
2.590;0.198208;-0.006488
2.600;0.179631;0.000389
2.610;0.157881;0.006248
2.620;0.133596;0.011750
2.630;0.107869;0.017464
2.640;0.082192;0.023683
2.650;0.058355;0.030326
2.660;0.038267;0.036959
2.670;0.023673;0.042917
2.680;0.015768;0.047473
2.690;0.014828;0.049985
2.700;0.020016;0.050021
2.710;0.029491;0.047434
2.720;0.040847;0.042375
2.730;0.051714;0.035239
2.740;0.060299;0.026573
2.750;0.065677;0.016976
2.760;0.067756;0.007020
2.770;0.067017;-0.002830
2.780;0.064153;-0.012288
2.790;0.059742;-0.021300
2.800;0.054053;-0.030059
2.810;0.047005;-0.038972
2.820;0.038278;-0.048595
2.830;0.027533;-0.059508
2.840;0.014679;-0.072161
2.850;0.000081;-0.086702
2.860;-0.015381;-0.102862
2.870;-0.030478;-0.119977
2.880;-0.043999;-0.137168
2.890;-0.055197;-0.153613
2.900;-0.064130;-0.168759
2.910;-0.071739;-0.182393
2.920;-0.079586;-0.194567
2.930;-0.089357;-0.205467
2.940;-0.102292;-0.215290
2.950;-0.118783;-0.224172
2.960;-0.138239;-0.232135
2.970;-0.159283;-0.239052
2.980;-0.180189;-0.244657
2.990;-0.199407;-0.248613
3.000;-0.216010;-0.250631
3.010;-0.229881;-0.250574
3.020;-0.241596;-0.248495
3.030;-0.252045;-0.244582
3.040;-0.261958;-0.239026
3.050;-0.271553;-0.231866
3.060;-0.280449;-0.222873
3.070;-0.287884;-0.211567
3.080;-0.293080;-0.197403
3.090;-0.295543;-0.180108
3.100;-0.295155;-0.160039
3.110;-0.292047;-0.138418
3.120;-0.286382;-0.117265
3.130;-0.278210;-0.098987
3.140;-0.267473;-0.085712
3.150;-0.254111;-0.078645
3.160;-0.238183;-0.077729
3.170;-0.219911;-0.081770
3.180;-0.199653;-0.088918
3.190;-0.177832;-0.097251
3.200;-0.154870;-0.105248
3.210;-0.131115;-0.112058
3.220;-0.106772;-0.117571
3.230;-0.081855;-0.122315
3.240;-0.056198;-0.127194
3.250;-0.029571;-0.133120
3.260;-0.001868;-0.140683
3.270;0.026693;-0.149972
3.280;0.055443;-0.160627
3.290;0.083334;-0.172065
3.300;0.109231;-0.183764
3.310;0.132363;-0.195490
3.320;0.152718;-0.207357
3.330;0.171179;-0.219686
3.340;0.189283;-0.232738
3.350;0.208707;-0.246433
3.360;0.230650;-0.260245
3.370;0.255386;-0.273326
3.380;0.282135;-0.284794
3.390;0.309342;-0.294012
3.400;0.335246;-0.300735
3.410;0.358533;-0.305108
3.420;0.378780;-0.307618
3.430;0.396515;-0.309032
3.440;0.412880;-0.310324
3.450;0.429097;-0.312530
3.460;0.445987;-0.316533
3.470;0.463757;-0.322847
3.480;0.482102;-0.331490
3.490;0.500482;-0.342018
3.500;0.518420;-0.353696
3.510;0.535674;-0.365750
3.520;0.552254;-0.377608
3.530;0.568339;-0.389056
3.540;0.584160;-0.400267
3.550;0.599885;-0.411706
3.560;0.615509;-0.423940
3.570;0.630773;-0.437397
3.580;0.645132;-0.452161
3.590;0.657830;-0.467865
3.600;0.668047;-0.483749
3.610;0.675072;-0.498840
3.620;0.678450;-0.512214
3.630;0.678051;-0.523225
3.640;0.674062;-0.531670
3.650;0.666927;-0.537819
3.660;0.657279;-0.542321
3.670;0.645872;-0.545993
3.680;0.633501;-0.549575
3.690;0.620883;-0.553539
3.700;0.608488;-0.558016
3.710;0.596384;-0.562851
3.720;0.584162;-0.567717
3.730;0.571018;-0.572248
3.740;0.555965;-0.576138
3.750;0.538097;-0.579230
3.760;0.516792;-0.581555
3.770;0.491799;-0.583361
3.780;0.463230;-0.585084
3.790;0.431520;-0.587273
3.800;0.397403;-0.590467
3.810;0.361921;-0.595069
3.820;0.326448;-0.601277
3.830;0.292648;-0.609085
3.840;0.262338;-0.618327
3.850;0.237203;-0.628729
3.860;0.218462;-0.639974
3.870;0.206583;-0.651748
3.880;0.201226;-0.663814
3.890;0.201469;-0.676084
3.900;0.206229;-0.688665
3.910;0.214684;-0.701876
3.920;0.226465;-0.716199
3.930;0.241558;-0.732158
3.940;0.259974;-0.750153
3.950;0.281399;-0.770291
3.960;0.305011;-0.792301
3.970;0.329555;-0.815563
3.980;0.353645;-0.839214
3.990;0.376125;-0.862311
4.000;0.396336;-0.884002
4.010;0.414195;-0.903678
4.020;0.430082;-0.921055
4.030;0.444605;-0.936167
4.040;0.458334;-0.949253
4.050;0.471588;-0.960588
4.060;0.484328;-0.970345
4.070;0.496194;-0.978569
4.080;0.506679;-0.985281
4.090;0.515357;-0.990636
4.100;0.522068;-0.995009
4.110;0.526964;-0.998928
4.120;0.530439;-1.002900
4.130;0.532994;-1.007226
4.140;0.535127;-1.011905
4.150;0.537285;-1.016635
4.160;0.539872;-1.020877
4.170;0.543277;-1.023941
4.180;0.547854;-1.025089
4.190;0.553850;-1.023650
4.200;0.561295;-1.019132
4.210;0.569905;-1.011272
4.220;0.579055;-0.999993
4.230;0.587854;-0.985282
4.240;0.595322;-0.967046
4.250;0.600632;-0.944964
4.260;0.603329;-0.918402
4.270;0.603455;-0.886430
4.280;0.601501;-0.848026
4.290;0.598200;-0.802479
4.300;0.594204;-0.749847
4.310;0.589795;-0.691282
4.320;0.584762;-0.629025
4.330;0.578504;-0.566063
4.340;0.570324;-0.505553
4.350;0.559758;-0.450215
4.360;0.546810;-0.401888
4.370;0.532002;-0.361334
4.380;0.516235;-0.328337
4.390;0.500522;-0.301978
4.400;0.485700;-0.280975
4.410;0.472232;-0.263952
4.420;0.460166;-0.249632
4.430;0.449220;-0.236943
4.440;0.438940;-0.225135
4.450;0.428854;-0.213883
4.460;0.418587;-0.203375
4.470;0.407939;-0.194292
4.480;0.396937;-0.187651
4.490;0.385859;-0.184515
4.500;0.375220;-0.185636
4.510;0.365691;-0.191166
4.520;0.357964;-0.200527
4.530;0.352566;-0.212530
4.540;0.349673;-0.225684
4.550;0.348955;-0.238578
4.560;0.349502;-0.250178
4.570;0.349876;-0.259948
4.580;0.348336;-0.267785
4.590;0.343199;-0.273810
4.600;0.333258;-0.278164
4.610;0.318117;-0.280882
4.620;0.298366;-0.281894
4.630;0.275517;-0.281144
4.640;0.251688;-0.278755
4.650;0.229093;-0.275151
4.660;0.209456;-0.271064
4.670;0.193565;-0.267412
4.680;0.181122;-0.265107
4.690;0.170961;-0.264851
4.700;0.161533;-0.266990
4.710;0.151457;-0.271460
4.720;0.139923;-0.277835
4.730;0.126840;-0.285470
4.740;0.112719;-0.293683
4.750;0.098412;-0.301914
4.760;0.084805;-0.309815
4.770;0.072579;-0.317240
4.780;0.062042;-0.324185
4.790;0.053034;-0.330714
4.800;0.044925;-0.336917
4.810;0.036737;-0.342883
4.820;0.027397;-0.348663
4.830;0.016073;-0.354215
4.840;0.002476;-0.359336
4.850;-0.012972;-0.363615
4.860;-0.029195;-0.366444
4.870;-0.044714;-0.367154
4.880;-0.058059;-0.365250
4.890;-0.068174;-0.360663
4.900;-0.074713;-0.353854
4.910;-0.078132;-0.345698
4.920;-0.079553;-0.337192
4.930;-0.080445;-0.329125
4.940;-0.082208;-0.321866
4.950;-0.085762;-0.315368
4.960;-0.091267;-0.309334
4.970;-0.098077;-0.303450
4.980;-0.104928;-0.297555
4.990;-0.110288;-0.291695
5.000;-0.112728;-0.286093
5.010;-0.111185;-0.281057
5.020;-0.105094;-0.276903
5.030;-0.094379;-0.273892
5.040;-0.079396;-0.272228
5.050;-0.060860;-0.272063
5.060;-0.039775;-0.273470
5.070;-0.017360;-0.276379
5.080;0.005075;-0.280505
5.090;0.026319;-0.285326
5.100;0.045458;-0.290141
5.110;0.062020;-0.294178
5.120;0.075996;-0.296740
5.130;0.087732;-0.297334
5.140;0.097758;-0.295749
5.150;0.106636;-0.292062
5.160;0.114906;-0.286591
5.170;0.123088;-0.279809
5.180;0.131697;-0.272236
5.190;0.141201;-0.264320
5.200;0.151901;-0.256352
5.210;0.163771;-0.248433
5.220;0.176339;-0.240494
5.230;0.188695;-0.232363
5.240;0.199662;-0.223834
5.250;0.208099;-0.214729
5.260;0.213199;-0.204953
5.270;0.214665;-0.194552
5.280;0.212727;-0.183746
5.290;0.208036;-0.172932
5.300;0.201549;-0.162639
5.310;0.194406;-0.153452
5.320;0.187822;-0.145929
5.330;0.182933;-0.140534
5.340;0.180609;-0.137605
5.350;0.181249;-0.137320
5.360;0.184647;-0.139668
5.370;0.190035;-0.144439
5.380;0.196284;-0.151244
5.390;0.202215;-0.159561
5.400;0.206877;-0.168801
5.410;0.209732;-0.178406
5.420;0.210674;-0.187943
5.430;0.209904;-0.197178
5.440;0.207709;-0.206078
5.450;0.204245;-0.214747
5.460;0.199449;-0.223323
5.470;0.193117;-0.231900
5.480;0.185117;-0.240502
5.490;0.175589;-0.249092
5.500;0.165019;-0.257552
5.510;0.154130;-0.265650
5.520;0.143637;-0.273024
5.530;0.133993;-0.279247
5.540;0.125218;-0.283957
5.550;0.116910;-0.286990
5.560;0.108428;-0.288460
5.570;0.099189;-0.288750
5.580;0.088992;-0.288444
5.590;0.078224;-0.288196
5.600;0.067869;-0.288563
5.610;0.059264;-0.289840
5.620;0.053670;-0.291987
5.630;0.051819;-0.294658
5.640;0.053615;-0.297315
5.650;0.058145;-0.299364
5.660;0.064001;-0.300276
5.670;0.069775;-0.299679
5.680;0.074510;-0.297441
5.690;0.077935;-0.293717
5.700;0.080432;-0.288930
5.710;0.082816;-0.283674
5.720;0.086048;-0.278552
5.730;0.090954;-0.274035
5.740;0.098011;-0.270395
5.750;0.107215;-0.267699
5.760;0.118063;-0.265864
5.770;0.129681;-0.264718
5.780;0.141076;-0.264071
5.790;0.151421;-0.263773
5.800;0.160273;-0.263741
5.810;0.167644;-0.263965
5.820;0.173931;-0.264491
5.830;0.179748;-0.265428
5.840;0.185726;-0.266958
5.850;0.192351;-0.269303
5.860;0.199867;-0.272610
5.870;0.208286;-0.276804
5.880;0.217442;-0.281518
5.890;0.227074;-0.286213
5.900;0.236873;-0.290440
5.910;0.246518;-0.294085
5.920;0.255708;-0.297443
5.930;0.264171;-0.301069
5.940;0.271682;-0.305492
5.950;0.278057;-0.310935
5.960;0.283165;-0.317182
5.970;0.286947;-0.323621
5.980;0.289449;-0.329445
5.990;0.290840;-0.333909
6.000;0.291396;-0.336553
6.010;0.291437;-0.337313
6.020;0.291235;-0.336490
6.030;0.290911;-0.334636
6.040;0.290402;-0.332386
6.050;0.289489;-0.330303
6.060;0.287905;-0.328775
6.070;0.285465;-0.327984
6.080;0.282187;-0.327940
6.090;0.278363;-0.328559
6.100;0.274525;-0.329734
6.110;0.271314;-0.331358
6.120;0.269264;-0.333276
6.130;0.268624;-0.335227
6.140;0.269264;-0.336825
6.150;0.270708;-0.337636
6.160;0.272235;-0.337323
6.170;0.273029;-0.335747
6.180;0.272325;-0.332979
6.190;0.269558;-0.329232
6.200;0.264467;-0.324775
6.210;0.257143;-0.319905
6.220;0.248003;-0.314966
6.230;0.237680;-0.310379
6.240;0.226854;-0.306620
6.250;0.216068;-0.304113
6.260;0.205611;-0.303100
6.270;0.195524;-0.303528
6.280;0.185743;-0.305015
6.290;0.176278;-0.306926
6.300;0.167334;-0.308554
6.310;0.159281;-0.309347
6.320;0.152509;-0.309067
6.330;0.147220;-0.307801
6.340;0.143274;-0.305848
6.350;0.140142;-0.303550
6.360;0.136996;-0.301172
6.370;0.132899;-0.298841
6.380;0.127045;-0.296540
6.390;0.118985;-0.294127
6.400;0.108767;-0.291386
6.410;0.096941;-0.288118
6.420;0.084390;-0.284237
6.430;0.072069;-0.279823
6.440;0.060728;-0.275082
6.450;0.050724;-0.270234
6.460;0.041948;-0.265387
6.470;0.033855;-0.260452
6.480;0.025578;-0.255155
6.490;0.016106;-0.249090
6.500;0.004495;-0.241806
6.510;-0.009910;-0.232873
6.520;-0.027272;-0.221955
6.530;-0.047132;-0.208883
6.540;-0.068389;-0.193715
6.550;-0.089467;-0.176747
6.560;-0.108653;-0.158431
6.570;-0.124545;-0.139238
6.580;-0.136458;-0.119486
6.590;-0.144636;-0.099233
6.600;-0.150177;-0.078255
6.610;-0.154663;-0.056134
6.620;-0.159629;-0.032461
6.630;-0.166034;-0.007061
6.640;-0.173944;0.019824
6.650;-0.182524;0.047533
6.660;-0.190339;0.075159
6.670;-0.195807;0.101827
6.680;-0.197630;0.126944
6.690;-0.195073;0.150285
6.700;-0.188047;0.171897
6.710;-0.177038;0.191902
6.720;-0.162948;0.210301
6.730;-0.146914;0.226920
6.740;-0.130130;0.241512
6.750;-0.113695;0.253959
6.760;-0.098462;0.264451
6.770;-0.084904;0.273508
6.780;-0.073034;0.281829
6.790;-0.062433;0.290018
6.800;-0.052443;0.298302
6.810;-0.042451;0.306345
6.820;-0.032149;0.313213
6.830;-0.021598;0.317510
6.840;-0.011062;0.317667
6.850;-0.000707;0.312306
6.860;0.009659;0.300618
6.870;0.020641;0.282634
6.880;0.033066;0.259304
6.890;0.047622;0.232326
6.900;0.064509;0.203785
6.910;0.083249;0.175702
6.920;0.102730;0.149637
6.930;0.121464;0.126463
6.940;0.137970;0.106365
6.950;0.151142;0.089020
6.960;0.160501;0.073875
6.970;0.166260;0.060384
6.980;0.169202;0.048145
6.990;0.170425;0.036907
7.000;0.171028;0.026520
7.010;0.171828;0.016890
7.020;0.173162;0.007982
7.030;0.174829;-0.000146
7.040;0.176173;-0.007339
7.050;0.176319;-0.013405
7.060;0.174527;-0.018232
7.070;0.170560;-0.021899
7.080;0.164915;-0.024691
7.090;0.158802;-0.027003
7.100;0.153814;-0.029173
7.110;0.151417;-0.031351
7.120;0.152421;-0.033462
7.130;0.156682;-0.035278
7.140;0.163129;-0.036548
7.150;0.170132;-0.037128
7.160;0.176010;-0.037068
7.170;0.179506;-0.036612
7.180;0.180078;-0.036091
7.190;0.177958;-0.035765
7.200;0.173984;-0.035682
7.210;0.169296;-0.035656
7.220;0.164993;-0.035405
7.230;0.161858;-0.034787
7.240;0.160209;-0.034027
7.250;0.159903;-0.033771
7.260;0.160461;-0.034907
7.270;0.161290;-0.038223
7.280;0.161900;-0.044069
7.290;0.162064;-0.052190
7.300;0.161846;-0.061784
7.310;0.161517;-0.071756
7.320;0.161403;-0.081034
7.330;0.161745;-0.088851
7.340;0.162641;-0.094931
7.350;0.164075;-0.099541
7.360;0.165996;-0.103377
7.370;0.168397;-0.107294
7.380;0.171324;-0.111968
7.390;0.174790;-0.117617
7.400;0.178615;-0.123904
7.410;0.182273;-0.130049
7.420;0.184838;-0.135078
7.430;0.185083;-0.138076
7.440;0.181749;-0.138369
7.450;0.173922;-0.135625
7.460;0.161394;-0.129880
7.470;0.144865;-0.121511
7.480;0.125827;-0.111185
7.490;0.106150;-0.099754
7.500;0.087480;-0.088132
7.510;0.070687;-0.077149
7.520;0.055594;-0.067423
7.530;0.041077;-0.059264
7.540;0.025496;-0.052661
7.550;0.007248;-0.047350
7.560;-0.014760;-0.042951
7.570;-0.040855;-0.039153
7.580;-0.070592;-0.035895
7.590;-0.102936;-0.033478
7.600;-0.136559;-0.032536
7.610;-0.170145;-0.033842
7.620;-0.202603;-0.038010
7.630;-0.233102;-0.045248
7.640;-0.260952;-0.055259
7.650;-0.285442;-0.067294
7.660;-0.305792;-0.080322
7.670;-0.321301;-0.093259
7.680;-0.331611;-0.105179
7.690;-0.336954;-0.115492
7.700;-0.338231;-0.124015
7.710;-0.336888;-0.130936
7.720;-0.334614;-0.136661
7.730;-0.332995;-0.141632
7.740;-0.333181;-0.146192
7.750;-0.335661;-0.150525
7.760;-0.340148;-0.154650
7.770;-0.345654;-0.158422
7.780;-0.350739;-0.161536
7.790;-0.353936;-0.163540
7.800;-0.354223;-0.163916
7.810;-0.351391;-0.162221
7.820;-0.346171;-0.158248
7.830;-0.340035;-0.152139
7.840;-0.334770;-0.144378
7.850;-0.331943;-0.135677
7.860;-0.332489;-0.126796
7.870;-0.336525;-0.118360
7.880;-0.343436;-0.110720
7.890;-0.352153;-0.103925
7.900;-0.361473;-0.097794
7.910;-0.370338;-0.092082
7.920;-0.377993;-0.086642
7.930;-0.384028;-0.081558
7.940;-0.388333;-0.077196
7.950;-0.391006;-0.074172
7.960;-0.392271;-0.073221
7.970;-0.392404;-0.075015
