Time[s];COPx[cm];COPy[cm]
0.010;-1.732033;0.724843
0.020;-1.738310;0.720337
0.030;-1.744142;0.716034
0.040;-1.749278;0.711988
0.050;-1.753731;0.707997
0.060;-1.757734;0.703641
0.070;-1.761570;0.698431
0.080;-1.765365;0.692009
0.090;-1.768964;0.684301
0.100;-1.771951;0.675550
0.110;-1.773822;0.666222
0.120;-1.774205;0.656837
0.130;-1.773037;0.647776
0.140;-1.770590;0.639142
0.150;-1.767370;0.630712
0.160;-1.763916;0.622012
0.170;-1.760629;0.612506
0.180;-1.757697;0.601790
0.190;-1.755134;0.589734
0.200;-1.752877;0.576480
0.210;-1.750872;0.562333
0.220;-1.749108;0.547602
0.230;-1.747598;0.532480
0.240;-1.746337;0.517000
0.250;-1.745288;0.501090
0.260;-1.744383;0.484652
0.270;-1.743566;0.467627
0.280;-1.742832;0.449986
0.290;-1.742243;0.431723
0.300;-1.741911;0.412863
0.310;-1.741943;0.393518
0.320;-1.742415;0.373942
0.330;-1.743383;0.354532
0.340;-1.744940;0.335757
0.350;-1.747249;0.318026
0.360;-1.750504;0.301543
0.370;-1.754831;0.286220
0.380;-1.760209;0.271706
0.390;-1.766446;0.257515
0.400;-1.773226;0.243209
0.410;-1.780173;0.228571
0.420;-1.786920;0.213724
0.430;-1.793163;0.199154
0.440;-1.798730;0.185619
0.450;-1.803611;0.173968
0.460;-1.807954;0.164932
0.470;-1.812012;0.158956
0.480;-1.816062;0.156163
0.490;-1.820346;0.156423
0.500;-1.825050;0.159503
0.510;-1.830308;0.165193
0.520;-1.836199;0.173364
0.530;-1.842680;0.183945
0.540;-1.849505;0.196863
0.550;-1.856182;0.211970
0.560;-1.862061;0.228977
0.570;-1.866537;0.247440
0.580;-1.869292;0.266773
0.590;-1.870439;0.286324
0.600;-1.870486;0.305467
0.610;-1.870142;0.323697
0.620;-1.870028;0.340682
0.630;-1.870452;0.356263
0.640;-1.871322;0.370402
0.650;-1.872221;0.383124
0.660;-1.872605;0.394465
0.670;-1.872006;0.404443
0.680;-1.870163;0.413040
0.690;-1.867033;0.420173
0.700;-1.862705;0.425700
0.710;-1.857286;0.429475
0.720;-1.850836;0.431443
0.730;-1.843408;0.431720
0.740;-1.835141;0.430596
0.750;-1.826354;0.428448
0.760;-1.817544;0.425618
0.770;-1.809293;0.422330
0.780;-1.802123;0.418676
0.790;-1.796363;0.414691
0.800;-1.792079;0.410447
0.810;-1.789079;0.406092
0.820;-1.786993;0.401807
0.830;-1.785407;0.397708
0.840;-1.783997;0.393788
0.850;-1.782612;0.389936
0.860;-1.781281;0.386024
0.870;-1.780135;0.382010
0.880;-1.779311;0.378012
0.890;-1.778856;0.374309
0.900;-1.778691;0.371276
0.910;-1.778624;0.369246
0.920;-1.778412;0.368367
0.930;-1.777837;0.368516
0.940;-1.776765;0.369336
0.950;-1.775190;0.370368
0.960;-1.773226;0.371242
0.970;-1.771073;0.371821
0.980;-1.768937;0.372257
0.990;-1.766964;0.372938
1.000;-1.765198;0.374365
1.010;-1.763583;0.377028
1.020;-1.761999;0.381283
1.030;-1.760312;0.387277
1.040;-1.758423;0.394881
1.050;-1.756305;0.403693
1.060;-1.754009;0.413119
1.070;-1.751642;0.422531
1.080;-1.749354;0.431460
1.090;-1.747330;0.439709
1.100;-1.745804;0.447363
1.110;-1.745045;0.454662
1.120;-1.745308;0.461831
1.130;-1.746731;0.468939
1.140;-1.749244;0.475877
1.150;-1.752500;0.482433
1.160;-1.755902;0.488416
1.170;-1.758720;0.493753
1.180;-1.760278;0.498504
1.190;-1.760149;0.502814
1.200;-1.758264;0.506846
1.210;-1.754914;0.510749
1.220;-1.750618;0.514633
1.230;-1.745944;0.518567
1.240;-1.741324;0.522570
1.250;-1.736961;0.526630
1.260;-1.732836;0.530762
1.270;-1.728819;0.535070
1.280;-1.724803;0.539799
1.290;-1.720792;0.545317
1.300;-1.716911;0.551997
1.310;-1.713340;0.560048
1.320;-1.710207;0.569349
1.330;-1.707518;0.579400
1.340;-1.705147;0.589445
1.350;-1.702912;0.598734
1.360;-1.700678;0.606822
1.370;-1.698426;0.613757
1.380;-1.696261;0.620093
1.390;-1.694359;0.626688
1.400;-1.692892;0.634396
1.410;-1.691985;0.643741
1.420;-1.691708;0.654740
1.430;-1.692103;0.666913
1.440;-1.693199;0.679475
1.450;-1.695007;0.691606
1.460;-1.697491;0.702671
1.470;-1.700546;0.712309
1.480;-1.704006;0.720402
1.490;-1.707670;0.726966
1.500;-1.711344;0.732056
1.510;-1.714855;0.735711
1.520;-1.718072;0.737958
1.530;-1.720939;0.738849
1.540;-1.723506;0.738499
1.550;-1.725946;0.737088
1.560;-1.728528;0.734833
1.570;-1.731553;0.731922
1.580;-1.735267;0.728436
1.590;-1.739806;0.724299
1.600;-1.745181;0.719274
1.610;-1.751312;0.713039
1.620;-1.758075;0.705330
1.630;-1.765326;0.696065
1.640;-1.772886;0.685398
1.650;-1.780538;0.673656
1.660;-1.788056;0.661191
1.670;-1.795297;0.648255
1.680;-1.802277;0.634958
1.690;-1.809185;0.621350
1.700;-1.816307;0.607559
1.710;-1.823910;0.593877
1.720;-1.832115;0.580731
1.730;-1.840858;0.568558
1.740;-1.849914;0.557655
1.750;-1.859019;0.548099
1.760;-1.867996;0.539745
1.770;-1.876850;0.532299
1.780;-1.885748;0.525415
1.790;-1.894905;0.518789
1.800;-1.904426;0.512243
1.810;-1.914190;0.505789
1.820;-1.923855;0.499640
1.830;-1.932961;0.494166
1.840;-1.941100;0.489734
1.850;-1.948044;0.486518
1.860;-1.953815;0.484340
1.870;-1.958662;0.482671
1.880;-1.962992;0.480795
1.890;-1.967247;0.478080
1.900;-1.971774;0.474222
1.910;-1.976723;0.469356
1.920;-1.982000;0.463984
1.930;-1.987312;0.458770
1.940;-1.992300;0.454276
1.950;-1.996707;0.450762
1.960;-2.000527;0.448113
1.970;-2.004068;0.445917
1.980;-2.007878;0.443632
1.990;-2.012549;0.440776
2.000;-2.018489;0.437091
2.010;-2.025753;0.432626
2.020;-2.034007;0.427729
2.030;-2.042644;0.422950
2.040;-2.050996;0.418889
2.050;-2.058548;0.416018
2.060;-2.065079;0.414561
2.070;-2.070692;0.414449
2.080;-2.075735;0.415376
2.090;-2.080647;0.416893
2.100;-2.085772;0.418508
2.110;-2.091210;0.419779
2.120;-2.096753;0.420405
2.130;-2.101943;0.420299
2.140;-2.106226;0.419624
2.150;-2.109138;0.418734
2.160;-2.110417;0.418049
2.170;-2.110018;0.417902
2.180;-2.108036;0.418451
2.190;-2.104595;0.419683
2.200;-2.099743;0.421497
2.210;-2.093379;0.423773
2.220;-2.085246;0.426397
2.230;-2.075018;0.429239
2.240;-2.062454;0.432112
2.250;-2.047555;0.434761
2.260;-2.030619;0.436913
2.270;-2.012185;0.438378
2.280;-1.992876;0.439140
2.290;-1.973250;0.439361
2.300;-1.953701;0.439273
2.310;-1.934418;0.439010
2.320;-1.915380;0.438466
2.330;-1.896368;0.437276
2.340;-1.877015;0.434910
2.350;-1.856900;0.430867
2.360;-1.835664;0.424860
2.370;-1.813098;0.416939
2.380;-1.789188;0.407508
2.390;-1.764064;0.397242
2.400;-1.737911;0.386936
2.410;-1.710881;0.377336
2.420;-1.683060;0.369003
2.430;-1.654509;0.362238
2.440;-1.625343;0.357090
2.450;-1.595800;0.353410
2.460;-1.566273;0.350918
2.470;-1.537284;0.349260
2.480;-1.509392;0.348061
2.490;-1.483077;0.346983
2.500;-1.458648;0.345757
2.510;-1.436212;0.344197
2.520;-1.415698;0.342185
2.530;-1.396920;0.339675
2.540;-1.379650;0.336729
2.550;-1.363689;0.333538
2.560;-1.348923;0.330392
2.570;-1.335365;0.327573
2.580;-1.323167;0.325248
2.590;-1.312596;0.323423
2.600;-1.303972;0.321980
2.610;-1.297587;0.320755
2.620;-1.293637;0.319625
2.630;-1.292168;0.318552
2.640;-1.293036;0.317581
2.650;-1.295893;0.316788
2.660;-1.300188;0.316194
2.670;-1.305219;0.315696
2.680;-1.310242;0.315057
2.690;-1.314622;0.313997
2.700;-1.317981;0.312331
2.710;-1.320298;0.310096
2.720;-1.321905;0.307593
2.730;-1.323390;0.305316
2.740;-1.325429;0.303786
2.750;-1.328616;0.303385
2.760;-1.333320;0.304231
2.770;-1.339617;0.306181
2.780;-1.347303;0.308915
2.790;-1.355974;0.312073
2.800;-1.365125;0.315353
2.810;-1.374226;0.318545
2.820;-1.382798;0.321491
2.830;-1.390489;0.324037
2.840;-1.397149;0.326031
2.850;-1.402886;0.327368
2.860;-1.408056;0.328031
2.870;-1.413168;0.328108
2.880;-1.418731;0.327769
2.890;-1.425069;0.327225
2.900;-1.432173;0.326676
2.910;-1.439669;0.326259
2.920;-1.446936;0.326028
2.930;-1.453319;0.325971
2.940;-1.458357;0.326059
2.950;-1.461929;0.326287
2.960;-1.464264;0.326666
2.970;-1.465831;0.327182
2.980;-1.467187;0.327743
2.990;-1.468839;0.328195
3.000;-1.471200;0.328386
3.010;-1.474602;0.328250
3.020;-1.479342;0.327848
3.030;-1.485714;0.327348
3.040;-1.493967;0.326954
3.050;-1.504226;0.326832
3.060;-1.516387;0.327034
3.070;-1.530080;0.327457
3.080;-1.544721;0.327869
3.090;-1.559681;0.328003
3.100;-1.574483;0.327690
3.110;-1.588961;0.326928
3.120;-1.603288;0.325866
3.130;-1.617863;0.324696
3.140;-1.633102;0.323547
3.150;-1.649217;0.322444
3.160;-1.666099;0.321363
3.170;-1.683337;0.320326
3.180;-1.700370;0.319441
3.190;-1.716690;0.318876
3.200;-1.732020;0.318773
3.210;-1.746365;0.319183
3.220;-1.759937;0.320043
3.230;-1.772974;0.321213
3.240;-1.785544;0.322510
3.250;-1.797422;0.323732
3.260;-1.808104;0.324662
3.270;-1.816946;0.325123
3.280;-1.823373;0.325067
3.290;-1.827074;0.324659
3.300;-1.828104;0.324278
3.310;-1.826849;0.324416
3.320;-1.823878;0.325494
3.330;-1.819738;0.327666
3.340;-1.814799;0.330730
3.350;-1.809231;0.334195
3.360;-1.803080;0.337470
3.370;-1.796394;0.340091
3.380;-1.789298;0.341874
3.390;-1.781979;0.342959
3.400;-1.774621;0.343742
3.410;-1.767307;0.344701
3.420;-1.759948;0.346207
3.430;-1.752273;0.348380
3.440;-1.743907;0.351074
3.450;-1.734529;0.354002
3.460;-1.724008;0.356930
3.470;-1.712482;0.359797
3.480;-1.700313;0.362721
3.490;-1.687985;0.365889
3.500;-1.676012;0.369419
3.510;-1.664873;0.373275
3.520;-1.654991;0.377278
3.530;-1.646700;0.381201
3.540;-1.640183;0.384889
3.550;-1.635395;0.388326
3.560;-1.632014;0.391601
3.570;-1.629477;0.394782
3.580;-1.627094;0.397800
3.590;-1.624201;0.400434
3.600;-1.620304;0.402416
3.610;-1.615183;0.403598
3.620;-1.608927;0.404090
3.630;-1.601920;0.404283
3.640;-1.594767;0.404760
3.650;-1.588177;0.406153
3.660;-1.582802;0.408963
3.670;-1.579039;0.413418
3.680;-1.576868;0.419380
3.690;-1.575799;0.426377
3.700;-1.575000;0.433746
3.710;-1.573577;0.440828
3.720;-1.570902;0.447146
3.730;-1.566823;0.452490
3.740;-1.561653;0.456916
3.750;-1.555962;0.460692
3.760;-1.550281;0.464231
3.770;-1.544905;0.468032
3.780;-1.539832;0.472622
3.790;-1.534836;0.478452
3.800;-1.529586;0.485762
3.810;-1.523754;0.494459
3.820;-1.517088;0.504096
3.830;-1.509438;0.514004
3.840;-1.500771;0.523536
3.850;-1.491167;0.532324
3.860;-1.480810;0.540394
3.870;-1.469981;0.548096
3.880;-1.459037;0.555867
3.890;-1.448347;0.563943
3.900;-1.438196;0.572169
3.910;-1.428669;0.579986
3.920;-1.419595;0.586626
3.930;-1.410579;0.591408
3.940;-1.401134;0.594029
3.950;-1.390864;0.594710
3.960;-1.379641;0.594135
3.970;-1.367698;0.593185
3.980;-1.355579;0.592584
3.990;-1.343955;0.592607
4.000;-1.333383;0.593010
4.010;-1.324105;0.593209
4.020;-1.315986;0.592620
4.030;-1.308598;0.590982
4.040;-1.301409;0.588494
4.050;-1.293953;0.585706
4.060;-1.285934;0.583227
4.070;-1.277241;0.581412
4.080;-1.267916;0.580191
4.090;-1.258104;0.579115
4.100;-1.247988;0.577586
4.110;-1.237750;0.575145
4.120;-1.227539;0.571670
4.130;-1.217459;0.567390
4.140;-1.207562;0.562725
4.150;-1.197855;0.558063
4.160;-1.188320;0.553606
4.170;-1.178963;0.549360
4.180;-1.169836;0.545244
4.190;-1.161040;0.541209
4.200;-1.152666;0.537295
4.210;-1.144737;0.533564
4.220;-1.137158;0.530011
4.230;-1.129736;0.526507
4.240;-1.122241;0.522816
4.250;-1.114494;0.518678
4.260;-1.106422;0.513889
4.270;-1.098069;0.508375
4.280;-1.089560;0.502218
4.290;-1.081027;0.495648
4.300;-1.072558;0.488965
4.310;-1.064179;0.482428
4.320;-1.055877;0.476168
4.330;-1.047650;0.470181
4.340;-1.039537;0.464418
4.350;-1.031650;0.458898
4.360;-1.024178;0.453765
4.370;-1.017383;0.449231
4.380;-1.011538;0.445455
4.390;-1.006843;0.442459
4.400;-1.003349;0.440121
4.410;-1.000933;0.438249
4.420;-0.999326;0.436670
4.430;-0.998186;0.435283
4.440;-0.997185;0.434068
4.450;-0.996085;0.433066
4.460;-0.994815;0.432354
4.470;-0.993511;0.432017
4.480;-0.992544;0.432120
4.490;-0.992474;0.432674
4.500;-0.993935;0.433595
4.510;-0.997451;0.434669
4.520;-1.003250;0.435561
4.530;-1.011152;0.435913
4.540;-1.020573;0.435488
4.550;-1.030667;0.434291
4.560;-1.040562;0.432578
4.570;-1.049624;0.430732
4.580;-1.057619;0.429085
4.590;-1.064710;0.427770
4.600;-1.071304;0.426690
4.610;-1.077844;0.425591
4.620;-1.084668;0.424191
4.630;-1.091982;0.422309
4.640;-1.099911;0.419910
4.650;-1.108550;0.417093
4.660;-1.117965;0.414026
4.670;-1.128164;0.410883
4.680;-1.139081;0.407793
4.690;-1.150611;0.404815
4.700;-1.162653;0.401908
4.710;-1.175150;0.398937
4.720;-1.188075;0.395724
4.730;-1.201420;0.392133
4.740;-1.215199;0.388153
4.750;-1.229473;0.383941
4.760;-1.244371;0.379783
4.770;-1.260079;0.376008
4.780;-1.276783;0.372883
4.790;-1.294608;0.370543
4.800;-1.313559;0.368970
4.810;-1.333519;0.368011
4.820;-1.354301;0.367420
4.830;-1.375743;0.366909
4.840;-1.397809;0.366207
4.850;-1.420616;0.365117
4.860;-1.444358;0.363568
4.870;-1.469127;0.361657
4.880;-1.494745;0.359660
4.890;-1.520695;0.357999
4.900;-1.546206;0.357170
4.910;-1.570450;0.357619
4.920;-1.592747;0.359615
4.930;-1.612684;0.363157
4.940;-1.630149;0.367954
4.950;-1.645286;0.373508
4.960;-1.658407;0.379285
4.970;-1.669859;0.384912
4.980;-1.679881;0.390309
4.990;-1.688512;0.395691
5.000;-1.695597;0.401435
5.010;-1.700899;0.407904
5.020;-1.704266;0.415287
5.030;-1.705747;0.423520
5.040;-1.705606;0.432296
5.050;-1.704213;0.441147
5.060;-1.701896;0.449591
5.070;-1.698817;0.457272
5.080;-1.694946;0.464052
5.090;-1.690120;0.470020
5.100;-1.684149;0.475452
5.110;-1.676902;0.480761
5.120;-1.668340;0.486415
5.130;-1.658523;0.492819
5.140;-1.647583;0.500158
5.150;-1.635709;0.508264
5.160;-1.623129;0.516622
5.170;-1.610069;0.524525
5.180;-1.596689;0.531323
5.190;-1.583007;0.536647
5.200;-1.568882;0.540499
5.210;-1.554060;0.543203
5.220;-1.538290;0.545264
5.230;-1.521432;0.547210
5.240;-1.503532;0.549451
5.250;-1.484814;0.552190
5.260;-1.465611;0.555382
5.270;-1.446273;0.558759
5.280;-1.427074;0.561934
5.290;-1.408160;0.564547
5.300;-1.389546;0.566423
5.310;-1.371166;0.567662
5.320;-1.352941;0.568633
5.330;-1.334845;0.569850
5.340;-1.316942;0.571783
5.350;-1.299401;0.574687
5.360;-1.282469;0.578496
5.370;-1.266437;0.582836
5.380;-1.251604;0.587142
5.390;-1.238242;0.590829
5.400;-1.226558;0.593485
5.410;-1.216642;0.594981
5.420;-1.208411;0.595471
5.430;-1.201613;0.595254
5.440;-1.195872;0.594586
5.450;-1.190789;0.593540
5.460;-1.186017;0.592021
5.470;-1.181299;0.589919
5.480;-1.176492;0.587276
5.490;-1.171594;0.584360
5.500;-1.166782;0.581585
5.510;-1.162443;0.579339
5.520;-1.159137;0.577827
5.530;-1.157511;0.577012
5.540;-1.158166;0.576652
5.550;-1.161517;0.576419
5.560;-1.167691;0.576015
5.570;-1.176493;0.575235
5.580;-1.187460;0.573984
5.590;-1.200000;0.572267
5.600;-1.213549;0.570153
5.610;-1.227700;0.567731
5.620;-1.242254;0.565080
5.630;-1.257206;0.562282
5.640;-1.272691;0.559493
5.650;-1.288906;0.557016
5.660;-1.306045;0.555293
5.670;-1.324269;0.554780
5.680;-1.343702;0.555746
5.690;-1.364448;0.558099
5.700;-1.386564;0.561367
5.710;-1.410002;0.564832
5.720;-1.434540;0.567771
5.730;-1.459768;0.569685
5.740;-1.485153;0.570440
5.750;-1.510157;0.570297
5.760;-1.534369;0.569802
5.770;-1.557618;0.569610
5.780;-1.580008;0.570289
5.790;-1.601877;0.572201
5.800;-1.623675;0.575472
5.810;-1.645823;0.580078
5.820;-1.668611;0.585992
5.830;-1.692169;0.593293
5.840;-1.716506;0.602174
5.850;-1.741564;0.612839
5.860;-1.767235;0.625358
5.870;-1.793305;0.639568
5.880;-1.819389;0.655055
5.890;-1.844894;0.671268
5.900;-1.869085;0.687693
5.910;-1.891239;0.703997
5.920;-1.910823;0.720079
5.930;-1.927614;0.735977
5.940;-1.941695;0.751716
5.950;-1.953336;0.767173
5.960;-1.962810;0.782044
5.970;-1.970227;0.795905
5.980;-1.975455;0.808329
5.990;-1.978170;0.818981
6.000;-1.978000;0.827677
6.010;-1.974719;0.834389
6.020;-1.968407;0.839240
6.030;-1.959496;0.842484
6.040;-1.948675;0.844469
6.050;-1.936706;0.845583
6.060;-1.924239;0.846182
6.070;-1.911698;0.846517
6.080;-1.899262;0.846680
6.090;-1.886913;0.846618
6.100;-1.874514;0.846197
6.110;-1.861894;0.845320
6.120;-1.848931;0.844021
6.130;-1.835618;0.842501
6.140;-1.822083;0.841068
6.150;-1.808585;0.840030
6.160;-1.795464;0.839590
6.170;-1.783074;0.839780
6.180;-1.771680;0.840461
6.190;-1.761361;0.841366
6.200;-1.751952;0.842173
6.210;-1.743076;0.842617
6.220;-1.734266;0.842569
6.230;-1.725096;0.842046
6.240;-1.715264;0.841137
6.250;-1.704581;0.839913
6.260;-1.692901;0.838402
6.270;-1.680048;0.836626
6.280;-1.665790;0.834668
6.290;-1.649877;0.832708
6.300;-1.632115;0.830974
6.310;-1.612458;0.829655
6.320;-1.591065;0.828809
6.330;-1.568315;0.828332
6.340;-1.544740;0.827992
6.350;-1.520918;0.827485
6.360;-1.497324;0.826493
6.370;-1.474225;0.824721
6.380;-1.451662;0.821940
6.390;-1.429547;0.818029
6.400;-1.407824;0.813013
6.410;-1.386622;0.807085
6.420;-1.366346;0.800565
6.430;-1.347675;0.793831
6.440;-1.331436;0.787219
6.450;-1.318366;0.780951
6.460;-1.308834;0.775117
6.470;-1.302655;0.769698
6.480;-1.299090;0.764614
6.490;-1.297029;0.759759
6.500;-1.295281;0.755031
6.510;-1.292838;0.750341
6.520;-1.289044;0.745631
6.530;-1.283666;0.740883
6.540;-1.276867;0.736117
6.550;-1.269134;0.731375
6.560;-1.261154;0.726670
6.570;-1.253658;0.721937
6.580;-1.247258;0.717015
6.590;-1.242350;0.711703
6.600;-1.239090;0.705886
6.610;-1.237446;0.699644
6.620;-1.237282;0.693267
6.630;-1.238433;0.687136
6.640;-1.240747;0.681540
6.650;-1.244100;0.676522
6.660;-1.248391;0.671838
6.670;-1.253537;0.667029
6.680;-1.259485;0.661562
6.690;-1.266215;0.654962
6.700;-1.273741;0.646933
6.710;-1.282094;0.637421
6.720;-1.291298;0.626635
6.730;-1.301347;0.615020
6.740;-1.312197;0.603157
6.750;-1.323748;0.591629
6.760;-1.335843;0.580879
6.770;-1.348295;0.571116
6.780;-1.360942;0.562266
6.790;-1.373720;0.553992
6.800;-1.386684;0.545764
6.810;-1.399951;0.536997
6.820;-1.413581;0.527218
6.830;-1.427457;0.516199
6.840;-1.441235;0.503993
6.850;-1.454410;0.490825
6.860;-1.466486;0.476918
6.870;-1.477137;0.462355
6.880;-1.486295;0.447059
6.890;-1.494108;0.430878
6.900;-1.500800;0.413686
6.910;-1.506512;0.395466
6.920;-1.511205;0.376356
6.930;-1.514668;0.356680
6.940;-1.516622;0.336950
6.950;-1.516861;0.317812
6.960;-1.515358;0.299928
6.970;-1.512272;0.283843
6.980;-1.507847;0.269875
6.990;-1.502271;0.258059
7.000;-1.495563;0.248161
7.010;-1.487559;0.239776
7.020;-1.477989;0.232470
7.030;-1.466594;0.225932
7.040;-1.453236;0.220082
7.050;-1.437953;0.215096
7.060;-1.420994;0.211327
7.070;-1.402810;0.209155
7.080;-1.384023;0.208797
7.090;-1.365322;0.210179
7.100;-1.347315;0.212905
7.110;-1.330385;0.216345
7.120;-1.314595;0.219842
7.130;-1.299714;0.222931
7.140;-1.285350;0.225514
7.150;-1.271135;0.227896
7.160;-1.256892;0.230657
7.170;-1.242716;0.234427
7.180;-1.228940;0.239640
7.190;-1.216006;0.246378
7.200;-1.204283;0.254354
7.210;-1.193927;0.263038
7.220;-1.184835;0.271849
7.230;-1.176708;0.280333
7.240;-1.169163;0.288258
7.250;-1.161829;0.295602
7.260;-1.154417;0.302455
7.270;-1.146738;0.308889
7.280;-1.138710;0.314869
7.290;-1.130353;0.320258
7.300;-1.121770;0.324923
7.310;-1.113140;0.328849
7.320;-1.104685;0.332194
7.330;-1.096610;0.335217
7.340;-1.089009;0.338123
7.350;-1.081759;0.340912
7.360;-1.074470;0.343350
7.370;-1.066541;0.345084
7.380;-1.057318;0.345810
7.390;-1.046284;0.345397
7.400;-1.033215;0.343894
7.410;-1.018242;0.341454
7.420;-1.001842;0.338231
7.430;-0.984771;0.334335
7.440;-0.967954;0.329841
7.450;-0.952334;0.324845
7.460;-0.938721;0.319496
7.470;-0.927668;0.313987
7.480;-0.919441;0.308490
7.490;-0.914048;0.303050
7.500;-0.911319;0.297512
7.510;-0.910979;0.291523
7.520;-0.912706;0.284638
7.530;-0.916168;0.276511
7.540;-0.921044;0.267071
7.550;-0.927042;0.256587
7.560;-0.933933;0.245573
7.570;-0.941593;0.234578
7.580;-0.950027;0.224006
7.590;-0.959343;0.214051
7.600;-0.969656;0.204757
7.610;-0.980976;0.196130
7.620;-0.993130;0.188199
7.630;-1.005777;0.181007
7.640;-1.018501;0.174545
7.650;-1.030927;0.168678
7.660;-1.042800;0.163135
7.670;-1.054009;0.157584
7.680;-1.064549;0.151756
7.690;-1.074467;0.145548
7.700;-1.083806;0.139055
7.710;-1.092578;0.132525
7.720;-1.100750;0.126269
7.730;-1.108249;0.120571
7.740;-1.114995;0.115638
7.750;-1.120942;0.111606
7.760;-1.126130;0.108565
7.770;-1.130707;0.106584
7.780;-1.134914;0.105684
7.790;-1.139044;0.105791
7.800;-1.143384;0.106681
7.810;-1.148160;0.107985
7.820;-1.153485;0.109281
7.830;-1.159328;0.110258
7.840;-1.165507;0.110872
7.850;-1.171726;0.111385
7.860;-1.177651;0.112261
7.870;-1.182996;0.113945
7.880;-1.187601;0.116664
7.890;-1.191456;0.120341
7.900;-1.194654;0.124646
7.910;-1.197296;0.129138
7.920;-1.199426;0.133430
7.930;-1.201036;0.137327
7.940;-1.202140;0.140903
7.950;-1.202863;0.144508
7.960;-1.203461;0.148682
7.970;-1.204280;0.153996
7.980;-1.205650;0.160862
