Time[s];COPx[cm];COPy[cm]
0.010;-1.632924;-2.063794
0.020;-1.648300;-1.997727
0.030;-1.664714;-1.928649
0.040;-1.683132;-1.854132
0.050;-1.704282;-1.772579
0.060;-1.728590;-1.683318
0.070;-1.756172;-1.586462
0.080;-1.786883;-1.482631
0.090;-1.820368;-1.372621
0.100;-1.856072;-1.257153
0.110;-1.893208;-1.136759
0.120;-1.930738;-1.011845
0.130;-1.967430;-0.882883
0.140;-2.002056;-0.750655
0.150;-2.033699;-0.616435
0.160;-2.062067;-0.482055
0.170;-2.087667;-0.349795
0.180;-2.111736;-0.222119
0.190;-2.135941;-0.101329
0.200;-2.161976;0.010775
0.210;-2.191215;0.113105
0.220;-2.224505;0.205289
0.230;-2.262139;0.287488
0.240;-2.303933;0.360070
0.250;-2.349372;0.423268
0.260;-2.397761;0.476949
0.270;-2.448328;0.520571
0.280;-2.500301;0.553368
0.290;-2.552948;0.574665
0.300;-2.605583;0.584204
0.310;-2.657530;0.582341
0.320;-2.708039;0.570085
0.330;-2.756226;0.549014
0.340;-2.801068;0.521119
0.350;-2.841477;0.488609
0.360;-2.876400;0.453642
0.370;-2.904895;0.417997
0.380;-2.926131;0.382775
0.390;-2.939349;0.348282
0.400;-2.943833;0.314189
0.410;-2.938958;0.279933
0.420;-2.924340;0.245184
0.430;-2.900049;0.210193
0.440;-2.866820;0.175862
0.450;-2.826170;0.143529
0.460;-2.780368;0.114590
0.470;-2.732237;0.090105
0.480;-2.684836;0.070545
0.490;-2.641128;0.055752
0.500;-2.603744;0.045103
0.510;-2.574880;0.037790
0.520;-2.556307;0.033098
0.530;-2.549376;0.030562
0.540;-2.554966;0.029982
0.550;-2.573375;0.031316
0.560;-2.604238;0.034469
0.570;-2.646530;0.039056
0.580;-2.698716;0.044246
0.590;-2.758990;0.048789
0.600;-2.825556;0.051280
0.610;-2.896841;0.050543
0.620;-2.971628;0.045932
0.630;-3.049109;0.037410
0.640;-3.128878;0.025353
0.650;-3.210854;0.010236
0.660;-3.295079;-0.007636
0.670;-3.381400;-0.028216
0.680;-3.469118;-0.051591
0.690;-3.556765;-0.077720
0.700;-3.642124;-0.106172
0.710;-3.722539;-0.135996
0.720;-3.795463;-0.165801
0.730;-3.859045;-0.194020
0.740;-3.912570;-0.219223
0.750;-3.956580;-0.240379
0.760;-3.992656;-0.257008
0.770;-4.022949;-0.269207
0.780;-4.049605;-0.277552
0.790;-4.074218;-0.282896
0.800;-4.097491;-0.286122
0.810;-4.119157;-0.287918
0.820;-4.138197;-0.288666
0.830;-4.153265;-0.288477
0.840;-4.163181;-0.287362
0.850;-4.167346;-0.285447
0.860;-4.165959;-0.283150
0.870;-4.159962;-0.281196
0.880;-4.150727;-0.280490
0.890;-4.139551;-0.281885
0.900;-4.127124;-0.285928
0.910;-4.113137;-0.292669
0.920;-4.096155;-0.301588
0.930;-4.073809;-0.311636
0.940;-4.043319;-0.321417
0.950;-4.002257;-0.329443
0.960;-3.949344;-0.334403
0.970;-3.885005;-0.335384
0.980;-3.811460;-0.331956
0.990;-3.732293;-0.324135
1.000;-3.651625;-0.312232
1.010;-3.573126;-0.296696
1.020;-3.499157;-0.277988
1.030;-3.430229;-0.256535
1.040;-3.364952;-0.232750
1.050;-3.300464;-0.207072
1.060;-3.233272;-0.180009
1.070;-3.160273;-0.152125
1.080;-3.079674;-0.123971
1.090;-2.991524;-0.095963
1.100;-2.897697;-0.068279
1.110;-2.801363;-0.040840
1.120;-2.706159;-0.013427
1.130;-2.615337;0.014119
1.140;-2.531147;0.041690
1.150;-2.454589;0.068767
1.160;-2.385536;0.094381
1.170;-2.323137;0.117170
1.180;-2.266285;0.135533
1.190;-2.214021;0.147862
1.200;-2.165757;0.152827
1.210;-2.121323;0.149649
1.220;-2.080872;0.138286
1.230;-2.044718;0.119480
1.240;-2.013133;0.094631
1.250;-1.986154;0.065530
1.260;-1.963424;0.034007
1.270;-1.944118;0.001594
1.280;-1.926953;-0.030715
1.290;-1.910296;-0.062554
1.300;-1.892307;-0.094061
1.310;-1.871111;-0.125617
1.320;-1.844960;-0.157533
1.330;-1.812381;-0.189797
1.340;-1.772287;-0.221953
1.350;-1.724020;-0.253155
1.360;-1.667367;-0.282368
1.370;-1.602565;-0.308645
1.380;-1.530301;-0.331391
1.390;-1.451661;-0.350507
1.400;-1.368010;-0.366391
1.410;-1.280804;-0.379823
1.420;-1.191400;-0.391819
1.430;-1.100928;-0.403488
1.440;-1.010253;-0.415907
1.450;-0.920052;-0.430011
1.460;-0.830958;-0.446485
1.470;-0.743735;-0.465694
1.480;-0.659376;-0.487661
1.490;-0.579093;-0.512132
1.500;-0.504180;-0.538710
1.510;-0.435824;-0.567007
1.520;-0.374956;-0.596729
1.530;-0.322176;-0.627663
1.540;-0.277798;-0.659577
1.550;-0.241984;-0.692108
1.560;-0.214917;-0.724706
1.570;-0.196954;-0.756644
1.580;-0.188691;-0.787128
1.590;-0.190887;-0.815447
1.600;-0.204267;-0.841151
1.610;-0.229264;-0.864160
1.620;-0.265826;-0.884765
1.630;-0.313391;-0.903478
1.640;-0.371082;-0.920781
1.650;-0.438073;-0.936845
1.660;-0.513972;-0.951328
1.670;-0.599069;-0.963310
1.680;-0.694327;-0.971406
1.690;-0.801104;-0.974034
1.700;-0.920656;-0.969796
1.710;-1.053546;-0.957878
1.720;-1.199109;-0.938342
1.730;-1.355165;-0.912214
1.740;-1.518101;-0.881307
1.750;-1.683363;-0.847869
1.760;-1.846213;-0.814183
1.770;-2.002462;-0.782237
1.780;-2.148921;-0.753552
1.790;-2.283420;-0.729093
1.800;-2.404480;-0.709263
1.810;-2.510869;-0.693943
1.820;-2.601313;-0.682588
1.830;-2.674499;-0.674361
1.840;-2.729397;-0.668265
1.850;-2.765738;-0.663250
1.860;-2.784462;-0.658330
1.870;-2.787944;-0.652703
1.880;-2.779864;-0.645851
1.890;-2.764740;-0.637577
1.900;-2.747226;-0.627983
1.910;-2.731375;-0.617419
1.920;-2.720102;-0.606418
1.930;-2.714960;-0.595640
1.940;-2.716287;-0.585784
1.950;-2.723623;-0.577464
1.960;-2.736219;-0.571046
1.970;-2.753431;-0.566522
1.980;-2.774890;-0.563491
1.990;-2.800411;-0.561283
2.000;-2.829751;-0.559185
2.010;-2.862343;-0.556663
2.020;-2.897180;-0.553457
2.030;-2.932875;-0.549537
2.040;-2.967889;-0.545017
2.050;-3.000812;-0.540124
2.060;-3.030599;-0.535254
2.070;-3.056667;-0.531034
2.080;-3.078823;-0.528300
2.090;-3.097041;-0.527961
2.100;-3.111176;-0.530783
2.110;-3.120774;-0.537189
2.120;-3.125094;-0.547103
2.130;-3.123347;-0.559889
2.140;-3.115082;-0.574387
2.150;-3.100529;-0.589064
2.160;-3.080738;-0.602264
2.170;-3.057424;-0.612497
2.180;-3.032555;-0.618653
2.190;-3.007848;-0.620074
2.200;-2.984383;-0.616474
2.210;-2.962472;-0.607815
2.220;-2.941794;-0.594219
2.230;-2.921720;-0.575981
2.240;-2.901695;-0.553619
2.250;-2.881559;-0.527879
2.260;-2.861708;-0.499643
2.270;-2.843058;-0.469773
2.280;-2.826830;-0.438950
2.290;-2.814274;-0.407594
2.300;-2.806443;-0.375865
2.310;-2.804126;-0.343735
2.320;-2.807893;-0.311116
2.330;-2.818163;-0.277980
2.340;-2.835173;-0.244440
2.350;-2.858805;-0.210734
2.360;-2.888341;-0.177124
2.370;-2.922299;-0.143772
2.380;-2.958468;-0.110647
2.390;-2.994224;-0.077529
2.400;-3.027003;-0.044080
2.410;-3.054795;-0.009922
2.420;-3.076455;0.025318
2.430;-3.091795;0.062026
2.440;-3.101466;0.100637
2.450;-3.106729;0.141647
2.460;-3.109174;0.185539
2.470;-3.110448;0.232634
2.480;-3.112030;0.282903
2.490;-3.115103;0.335811
2.500;-3.120506;0.390270
2.510;-3.128764;0.444718
2.520;-3.140151;0.497330
2.530;-3.154780;0.546287
2.540;-3.172689;0.590041
2.550;-3.193922;0.627475
2.560;-3.218589;0.657936
2.570;-3.246870;0.681157
2.580;-3.278942;0.697152
2.590;-3.314825;0.706138
2.600;-3.354185;0.708508
2.610;-3.396170;0.704815
2.620;-3.439336;0.695737
2.630;-3.481718;0.681978
2.640;-3.521027;0.664119
2.650;-3.554966;0.642465
2.660;-3.581545;0.616974
2.670;-3.599322;0.587308
2.680;-3.607503;0.553025
2.690;-3.605905;0.513858
2.700;-3.594819;0.469988
2.710;-3.574840;0.422205
2.720;-3.546697;0.371873
2.730;-3.511113;0.320717
2.740;-3.468711;0.270516
2.750;-3.419976;0.222828
2.760;-3.365281;0.178835
2.770;-3.304974;0.139270
2.780;-3.239471;0.104410
2.790;-3.169341;0.074058
2.800;-3.095388;0.047552
2.810;-3.018691;0.023843
2.820;-2.940613;0.001661
2.830;-2.862723;-0.020231
2.840;-2.786647;-0.042791
2.850;-2.713881;-0.066536
2.860;-2.645640;-0.091499
2.870;-2.582784;-0.117346
2.880;-2.525816;-0.143571
2.890;-2.474936;-0.169729
2.900;-2.430135;-0.195612
2.910;-2.391274;-0.221326
2.920;-2.358132;-0.247284
2.930;-2.330389;-0.274110
2.940;-2.307551;-0.302465
2.950;-2.288879;-0.332846
2.960;-2.273370;-0.365429
2.970;-2.259836;-0.400013
2.980;-2.247055;-0.436094
2.990;-2.233982;-0.473023
3.000;-2.219923;-0.510212
3.010;-2.204626;-0.547325
3.020;-2.188227;-0.584377
3.030;-2.171088;-0.621715
3.040;-2.153597;-0.659896
3.050;-2.135999;-0.699538
3.060;-2.118279;-0.741180
3.070;-2.100102;-0.785175
3.080;-2.080793;-0.831591
3.090;-2.059370;-0.880139
3.100;-2.034672;-0.930164
3.110;-2.005559;-0.980743
3.120;-1.971160;-1.030870
3.130;-1.931086;-1.079690
3.140;-1.885504;-1.126690
3.150;-1.835039;-1.171773
3.160;-1.780540;-1.215140
3.170;-1.722812;-1.257037
3.180;-1.662434;-1.297465
3.190;-1.599676;-1.336009
3.200;-1.534537;-1.371835
3.210;-1.466823;-1.403817
3.220;-1.396235;-1.430726
3.230;-1.322431;-1.451424
3.240;-1.245086;-1.465042
3.250;-1.163980;-1.471155
3.260;-1.079128;-1.469936
3.270;-0.990898;-1.462253
3.280;-0.900042;-1.449627
3.290;-0.807625;-1.433985
3.300;-0.714875;-1.417243
3.310;-0.623041;-1.400835
3.320;-0.533318;-1.385360
3.330;-0.446831;-1.370484
3.340;-0.364651;-1.355110
3.350;-0.287805;-1.337755
3.360;-0.217269;-1.316972
3.370;-0.153936;-1.291704
3.380;-0.098581;-1.261513
3.390;-0.051858;-1.226677
3.400;-0.014341;-1.188167
3.410;0.013398;-1.147496
3.420;0.030720;-1.106433
3.430;0.036875;-1.066561
3.440;0.030993;-1.028758
3.450;0.012095;-0.992797
3.460;-0.020876;-0.957280
3.470;-0.068955;-0.920055
3.480;-0.132921;-0.879064
3.490;-0.212919;-0.833349
3.500;-0.308033;-0.783827
3.510;-0.415974;-0.733454
3.520;-0.533053;-0.686609
3.530;-0.654531;-0.647846
3.540;-0.775262;-0.620502
3.550;-0.890414;-0.605745
3.560;-0.995992;-0.602455
3.570;-1.088996;-0.607866
3.580;-1.167257;-0.618547
3.590;-1.229144;-0.631247
3.600;-1.273346;-0.643313
3.610;-1.298838;-0.652716
3.620;-1.305006;-0.657858
3.630;-1.291868;-0.657406
3.640;-1.260274;-0.650289
3.650;-1.211999;-0.635879
3.660;-1.149669;-0.614228
3.670;-1.076553;-0.586168
3.680;-0.996274;-0.553132
3.690;-0.912553;-0.516747
3.700;-0.829038;-0.478360
3.710;-0.749235;-0.438751
3.720;-0.676482;-0.398139
3.730;-0.613890;-0.356496
3.740;-0.564172;-0.313997
3.750;-0.529363;-0.271389
3.760;-0.510551;-0.230072
3.770;-0.507763;-0.191831
3.780;-0.520092;-0.158339
3.790;-0.546036;-0.130619
3.800;-0.583916;-0.108662
3.810;-0.632240;-0.091329
3.820;-0.689904;-0.076560
3.830;-0.756169;-0.061850
3.840;-0.830437;-0.044835
3.850;-0.911897;-0.023857
3.860;-0.999150;0.001661
3.870;-1.089947;0.031076
3.880;-1.181109;0.062670
3.890;-1.268692;0.094041
3.900;-1.348383;0.122653
3.910;-1.416085;0.146400
3.920;-1.468575;0.164015
3.930;-1.504070;0.175234
3.940;-1.522504;0.180711
3.950;-1.525437;0.181731
3.960;-1.515642;0.179829
3.970;-1.496511;0.176385
3.980;-1.471465;0.172310
3.990;-1.443482;0.167909
4.000;-1.414813;0.162969
4.010;-1.386900;0.157006
4.020;-1.360489;0.149554
4.030;-1.335866;0.140382
4.040;-1.313149;0.129538
4.050;-1.292528;0.117253
4.060;-1.274368;0.103734
4.070;-1.259181;0.088969
4.080;-1.247475;0.072644
4.090;-1.239606;0.054241
4.100;-1.235681;0.033259
4.110;-1.235579;0.009460
4.120;-1.239045;-0.016984
4.130;-1.245824;-0.045500
4.140;-1.255741;-0.075245
4.150;-1.268682;-0.105308
4.160;-1.284471;-0.134909
4.170;-1.302694;-0.163552
4.180;-1.322581;-0.191127
4.190;-1.343024;-0.217920
4.200;-1.362747;-0.244525
4.210;-1.380544;-0.271667
4.220;-1.395477;-0.299999
4.230;-1.406971;-0.329938
4.240;-1.414833;-0.361581
4.250;-1.419249;-0.394707
4.260;-1.420790;-0.428854
4.270;-1.420380;-0.463442
4.280;-1.419201;-0.497919
4.290;-1.418512;-0.531877
4.300;-1.419479;-0.565106
4.310;-1.423074;-0.597557
4.320;-1.430107;-0.629252
4.330;-1.441353;-0.660218
4.340;-1.457751;-0.690515
4.350;-1.480572;-0.720384
4.360;-1.511489;-0.750427
4.370;-1.552490;-0.781672
4.380;-1.605592;-0.815409
4.390;-1.672394;-0.852769
4.400;-1.753594;-0.894232
4.410;-1.848579;-0.939250
4.420;-1.955283;-0.986204
4.430;-2.070395;-1.032730
4.440;-2.189916;-1.076306
4.450;-2.309915;-1.114865
4.460;-2.427228;-1.147204
4.470;-2.539864;-1.173067
4.480;-2.647028;-1.192954
4.490;-2.748792;-1.207779
4.500;-2.845572;-1.218539
4.510;-2.937574;-1.226111
4.520;-3.024360;-1.231227
4.530;-3.104662;-1.234567
4.540;-3.176500;-1.236858
4.550;-3.237615;-1.238869
4.560;-3.286073;-1.241317
4.570;-3.320868;-1.244739
4.580;-3.342285;-1.249442
4.590;-3.351911;-1.255551
4.600;-3.352292;-1.263145
4.610;-3.346371;-1.272378
4.620;-3.336896;-1.283513
4.630;-3.325986;-1.296873
4.640;-3.314908;-1.312757
4.650;-3.304081;-1.331381
4.660;-3.293224;-1.352851
4.670;-3.281549;-1.377130
4.680;-3.267958;-1.403944
4.690;-3.251221;-1.432666
4.700;-3.230170;-1.462225
4.710;-3.203857;-1.491128
4.720;-3.171668;-1.517559
4.730;-3.133369;-1.539534
4.740;-3.089110;-1.555082
4.750;-3.039377;-1.562464
4.760;-2.984876;-1.560429
4.770;-2.926340;-1.548422
4.780;-2.864263;-1.526655
4.790;-2.798663;-1.495976
4.800;-2.728939;-1.457565
4.810;-2.653913;-1.412580
4.820;-2.572058;-1.361862
4.830;-2.481818;-1.305772
4.840;-2.381935;-1.244196
4.850;-2.271680;-1.176713
4.860;-2.150975;-1.102939
4.870;-2.020466;-1.022962
4.880;-1.881531;-0.937709
4.890;-1.736228;-0.849079
4.900;-1.587115;-0.759723
4.910;-1.436945;-0.672537
4.920;-1.288291;-0.590099
4.930;-1.143227;-0.514259
4.940;-1.003172;-0.446021
4.950;-0.868930;-0.385682
4.960;-0.740888;-0.333094
4.970;-0.619306;-0.287960
4.980;-0.504576;-0.250058
4.990;-0.397378;-0.219366
5.000;-0.298669;-0.196049
5.010;-0.209580;-0.180356
5.020;-0.131284;-0.172480
5.030;-0.064892;-0.172474
5.040;-0.011358;-0.180238
5.050;0.028619;-0.195572
5.060;0.054686;-0.218214
5.070;0.066850;-0.247825
5.080;0.065377;-0.283907
5.090;0.050610;-0.325674
5.100;0.022843;-0.371927
5.110;-0.017612;-0.420997
5.120;-0.070112;-0.470758
5.130;-0.133262;-0.518754
5.140;-0.204590;-0.562433
5.150;-0.280548;-0.599492
5.160;-0.356893;-0.628271
5.170;-0.429305;-0.648100
5.180;-0.493991;-0.659442
5.190;-0.548059;-0.663741
5.200;-0.589580;-0.662978
5.210;-0.617452;-0.659094
5.220;-0.631202;-0.653469
5.230;-0.630875;-0.646655
5.240;-0.617021;-0.638448
5.250;-0.590735;-0.628235
5.260;-0.553625;-0.615447
5.270;-0.507686;-0.599886
5.280;-0.455069;-0.581812
5.290;-0.397885;-0.561775
5.300;-0.338092;-0.540294
5.310;-0.277498;-0.517563
5.320;-0.217833;-0.493294
5.330;-0.160815;-0.466751
5.340;-0.108146;-0.436941
5.350;-0.061426;-0.402907
5.360;-0.021994;-0.364071
5.370;0.009239;-0.320543
5.380;0.031886;-0.273300
5.390;0.046057;-0.224140
5.400;0.052187;-0.175355
5.410;0.050786;-0.129169
5.420;0.042223;-0.087137
5.430;0.026645;-0.049734
5.440;0.004080;-0.016308
5.450;-0.025352;0.014576
5.460;-0.061203;0.044565
5.470;-0.102551;0.074952
5.480;-0.147991;0.106341
5.490;-0.195741;0.138606
5.500;-0.243819;0.171092
5.510;-0.290268;0.202943
5.520;-0.333376;0.233414
5.530;-0.371874;0.262120
5.540;-0.405041;0.289137
5.550;-0.432706;0.314926
5.560;-0.455131;0.340117
5.570;-0.472827;0.365220
5.580;-0.486347;0.390413
5.590;-0.496165;0.415452
5.600;-0.502667;0.439714
5.610;-0.506249;0.462327
5.620;-0.507452;0.482333
5.630;-0.507056;0.498861
5.640;-0.506111;0.511275
5.650;-0.505923;0.519261
5.660;-0.507977;0.522863
5.670;-0.513809;0.522434
5.680;-0.524809;0.518536
5.690;-0.542003;0.511766
5.700;-0.565910;0.502560
5.710;-0.596576;0.490999
5.720;-0.633808;0.476718
5.730;-0.677535;0.458924
5.740;-0.728151;0.436543
5.750;-0.786675;0.408415
5.760;-0.854643;0.373505
5.770;-0.933733;0.331060
5.780;-1.025256;0.280743
5.790;-1.129659;0.222719
5.800;-1.246241;0.157688
5.810;-1.373154;0.086822
5.820;-1.507689;0.011590
5.830;-1.646724;-0.066487
5.840;-1.787206;-0.146086
5.850;-1.926535;-0.226236
5.860;-2.062784;-0.306333
5.870;-2.194752;-0.386016
5.880;-2.321840;-0.464967
5.890;-2.443775;-0.542734
5.900;-2.560245;-0.618652
5.910;-2.670533;-0.691907
5.920;-2.773311;-0.761706
5.930;-2.866695;-0.827490
5.940;-2.948579;-0.889067
5.950;-3.017175;-0.946594
5.960;-3.071574;-1.000428
5.970;-3.112140;-1.050927
5.980;-3.140576;-1.098306
5.990;-3.159595;-1.142592
6.000;-3.172308;-1.183673
6.010;-3.181498;-1.221392
6.020;-3.189057;-1.255645
6.030;-3.195753;-1.286455
6.040;-3.201393;-1.314007
6.050;-3.205294;-1.338641
6.060;-3.206843;-1.360791
6.070;-3.205888;-1.380932
6.080;-3.202799;-1.399523
6.090;-3.198205;-1.416939
6.100;-3.192574;-1.433377
6.110;-3.185868;-1.448717
6.120;-3.177386;-1.462427
6.130;-3.165872;-1.473582
6.140;-3.149849;-1.481072
6.150;-3.128084;-1.483950
6.160;-3.100040;-1.481803
6.170;-3.066172;-1.474998
6.180;-3.027983;-1.464685
6.190;-2.987815;-1.452563
6.200;-2.948438;-1.440482
6.210;-2.912506;-1.430047
6.220;-2.882044;-1.422317
6.230;-2.858143;-1.417657
6.240;-2.840944;-1.415749
6.250;-2.829921;-1.415756
6.260;-2.824314;-1.416585
6.270;-2.823557;-1.417180
6.280;-2.827544;-1.416762
6.290;-2.836672;-1.414934
6.300;-2.851674;-1.411680
6.310;-2.873320;-1.407282
6.320;-2.902083;-1.402216
6.330;-2.937854;-1.397048
6.340;-2.979814;-1.392342
6.350;-3.026482;-1.388584
6.360;-3.075948;-1.386121
6.370;-3.126213;-1.385124
6.380;-3.175516;-1.385620
6.390;-3.222525;-1.387551
6.400;-3.266334;-1.390854
6.410;-3.306272;-1.395486
6.420;-3.341635;-1.401393
6.430;-3.371468;-1.408446
6.440;-3.394477;-1.416378
6.450;-3.409105;-1.424754
6.460;-3.413733;-1.432983
6.470;-3.406967;-1.440353
6.480;-3.387956;-1.446122
6.490;-3.356671;-1.449627
6.500;-3.314085;-1.450398
6.510;-3.262169;-1.448247
6.520;-3.203679;-1.443300
6.530;-3.141751;-1.435962
6.540;-3.079411;-1.426813
6.550;-3.019121;-1.416459
6.560;-2.962500;-1.405395
6.570;-2.910293;-1.393915
6.580;-2.862588;-1.382135
6.590;-2.819179;-1.370084
6.600;-2.779905;-1.357806
6.610;-2.744855;-1.345375
6.620;-2.714325;-1.332784
6.630;-2.688599;-1.319776
6.640;-2.667634;-1.305735
6.650;-2.650849;-1.289714
6.660;-2.637118;-1.270675
6.670;-2.624959;-1.247881
6.680;-2.612845;-1.221289
6.690;-2.599475;-1.191765
6.700;-2.583909;-1.160993
6.710;-2.565515;-1.131113
6.720;-2.543750;-1.104223
6.730;-2.517893;-1.081951
6.740;-2.486880;-1.065218
6.750;-2.449335;-1.054216
6.760;-2.403832;-1.048529
6.770;-2.349298;-1.047309
6.780;-2.285400;-1.049426
6.790;-2.212767;-1.053612
6.800;-2.132946;-1.058608
6.810;-2.048105;-1.063339
6.820;-1.960603;-1.067089
6.830;-1.872571;-1.069614
6.840;-1.785631;-1.071171
6.850;-1.700797;-1.072405
6.860;-1.618518;-1.074155
6.870;-1.538854;-1.077177
6.880;-1.461725;-1.081879
6.890;-1.387190;-1.088142
6.900;-1.315638;-1.095315
6.910;-1.247810;-1.102395
6.920;-1.184637;-1.108336
6.930;-1.126952;-1.112366
6.940;-1.075248;-1.114181
6.950;-1.029586;-1.113967
6.960;-0.989658;-1.112259
6.970;-0.954952;-1.109759
6.980;-0.924929;-1.107205
6.990;-0.899169;-1.105343
7.000;-0.877431;-1.104942
7.010;-0.859619;-1.106775
7.020;-0.845650;-1.111535
7.030;-0.835279;-1.119736
7.040;-0.827944;-1.131644
7.050;-0.822725;-1.147252
7.060;-0.818434;-1.166282
7.070;-0.813828;-1.188231
7.080;-0.807858;-1.212461
7.090;-0.799831;-1.238356
7.100;-0.789445;-1.265505
7.110;-0.776658;-1.293835
7.120;-0.761487;-1.323597
7.130;-0.743846;-1.355182
7.140;-0.723504;-1.388827
7.150;-0.700179;-1.424372
7.160;-0.673691;-1.461195
7.170;-0.644070;-1.498343
7.180;-0.611580;-1.534786
7.190;-0.576651;-1.569684
7.200;-0.539795;-1.602586
7.210;-0.501574;-1.633519
7.220;-0.462641;-1.662945
7.230;-0.423816;-1.691578
7.240;-0.386106;-1.720120
7.250;-0.350647;-1.749009
7.260;-0.318555;-1.778274
7.270;-0.290781;-1.807534
7.280;-0.267997;-1.836072
7.290;-0.250568;-1.862965
7.300;-0.238591;-1.887208
7.310;-0.231980;-1.907847
7.320;-0.230554;-1.924127
7.330;-0.234120;-1.935638
7.340;-0.242522;-1.942440
7.350;-0.255674;-1.945072
7.360;-0.273574;-1.944424
7.370;-0.296314;-1.941484
7.380;-0.324061;-1.937037
7.390;-0.356973;-1.931433
7.400;-0.395039;-1.924482
7.410;-0.437893;-1.915499
7.420;-0.484648;-1.903460
7.430;-0.533886;-1.887234
7.440;-0.583839;-1.865829
7.450;-0.632744;-1.838630
7.460;-0.679210;-1.805579
7.470;-0.722436;-1.767215
7.480;-0.762154;-1.724578
7.490;-0.798353;-1.679009
7.500;-0.830925;-1.631952
7.510;-0.859390;-1.584787
7.520;-0.882806;-1.538673
7.530;-0.899885;-1.494413
7.540;-0.909280;-1.452334
7.550;-0.909949;-1.412270
7.560;-0.901476;-1.373669
7.570;-0.884234;-1.335805
7.580;-0.859366;-1.298023
7.590;-0.828596;-1.259924
7.600;-0.793956;-1.221460
7.610;-0.757497;-1.182892
7.620;-0.721044;-1.144672
7.630;-0.686029;-1.107280
7.640;-0.653413;-1.071054
7.650;-0.623714;-1.036070
7.660;-0.597101;-1.002105
7.670;-0.573560;-0.968726
7.680;-0.553059;-0.935484
7.690;-0.535705;-0.902124
7.700;-0.521861;-0.868688
7.710;-0.512167;-0.835464
7.720;-0.507448;-0.802800
7.730;-0.508512;-0.770901
7.740;-0.515906;-0.739691
7.750;-0.529699;-0.708813
