Time[s];COPx[cm];COPy[cm]
0.010;-6.530230;-0.482087
0.020;-6.533141;-0.477550
0.030;-6.536240;-0.473056
0.040;-6.539535;-0.468682
0.050;-6.542826;-0.464623
0.060;-6.545816;-0.461138
0.070;-6.548252;-0.458464
0.080;-6.549984;-0.456763
0.090;-6.550913;-0.456114
0.100;-6.550912;-0.456550
0.110;-6.549812;-0.458069
0.120;-6.547465;-0.460634
0.130;-6.543814;-0.464141
0.140;-6.538936;-0.468421
0.150;-6.533053;-0.473251
0.160;-6.526546;-0.478398
0.170;-6.519942;-0.483647
0.180;-6.513845;-0.488835
0.190;-6.508808;-0.493881
0.200;-6.505189;-0.498812
0.210;-6.503052;-0.503778
0.220;-6.502156;-0.509046
0.230;-6.502070;-0.514943
0.240;-6.502340;-0.521735
0.250;-6.502632;-0.529456
0.260;-6.502765;-0.537794
0.270;-6.502670;-0.546132
0.280;-6.502340;-0.553791
0.290;-6.501819;-0.560352
0.300;-6.501225;-0.565906
0.310;-6.500766;-0.571116
0.320;-6.500716;-0.577027
0.330;-6.501324;-0.584682
0.340;-6.502654;-0.594681
0.350;-6.504457;-0.606866
0.360;-6.506146;-0.620299
0.370;-6.506961;-0.633559
0.380;-6.506246;-0.645241
0.390;-6.503711;-0.654450
0.400;-6.499528;-0.661067
0.410;-6.494245;-0.665710
0.420;-6.488566;-0.669425
0.430;-6.483115;-0.673267
0.440;-6.478244;-0.677973
0.450;-6.473950;-0.683818
0.460;-6.469886;-0.690667
0.470;-6.465458;-0.698135
0.480;-6.459990;-0.705748
0.490;-6.452905;-0.713032
0.500;-6.443889;-0.719560
0.510;-6.432978;-0.724961
0.520;-6.420576;-0.728951
0.530;-6.407434;-0.731352
0.540;-6.394580;-0.732118
0.550;-6.383191;-0.731376
0.560;-6.374349;-0.729454
0.570;-6.368722;-0.726859
0.580;-6.366283;-0.724151
0.590;-6.366195;-0.721732
0.600;-6.366958;-0.719653
0.610;-6.366774;-0.717559
0.620;-6.364023;-0.714831
0.630;-6.357648;-0.710887
0.640;-6.347363;-0.705459
0.650;-6.333622;-0.698705
0.660;-6.317419;-0.691106
0.670;-6.299998;-0.683246
0.680;-6.282587;-0.675616
0.690;-6.266192;-0.668479
0.700;-6.251493;-0.661802
0.710;-6.238791;-0.655243
0.720;-6.228025;-0.648221
0.730;-6.218814;-0.640121
0.740;-6.210571;-0.630551
0.750;-6.202672;-0.619534
0.760;-6.194662;-0.607503
0.770;-6.186451;-0.595098
0.780;-6.178380;-0.582889
0.790;-6.171118;-0.571206
0.800;-6.165420;-0.560165
0.810;-6.161832;-0.549840
0.820;-6.160481;-0.540412
0.830;-6.161052;-0.532174
0.840;-6.162920;-0.525387
0.850;-6.165344;-0.520112
0.860;-6.167584;-0.516104
0.870;-6.168951;-0.512822
0.880;-6.168827;-0.509552
0.890;-6.166743;-0.505594
0.900;-6.162474;-0.500485
0.910;-6.156143;-0.494179
0.920;-6.148245;-0.487107
0.930;-6.139589;-0.480077
0.940;-6.131133;-0.474024
0.950;-6.123785;-0.469722
0.960;-6.118195;-0.467553
0.970;-6.114605;-0.467442
0.980;-6.112773;-0.468947
0.990;-6.111989;-0.471466
1.000;-6.111212;-0.474427
1.010;-6.109317;-0.477381
1.020;-6.105418;-0.479989
1.030;-6.099125;-0.481984
1.040;-6.090633;-0.483187
1.050;-6.080613;-0.483586
1.060;-6.069966;-0.483394
1.070;-6.059565;-0.483043
1.080;-6.050070;-0.483080
1.090;-6.041844;-0.484012
1.100;-6.034968;-0.486148
1.110;-6.029329;-0.489496
1.120;-6.024732;-0.493776
1.130;-6.020985;-0.498556
1.140;-6.017937;-0.503434
1.150;-6.015489;-0.508173
1.160;-6.013576;-0.512684
1.170;-6.012134;-0.516894
1.180;-6.011065;-0.520613
1.190;-6.010233;-0.523515
1.200;-6.009546;-0.525262
1.210;-6.009079;-0.525691
1.220;-6.009129;-0.524925
1.230;-6.010161;-0.523318
1.240;-6.012630;-0.521242
1.250;-6.016794;-0.518849
1.260;-6.022587;-0.515959
1.270;-6.029616;-0.512137
1.280;-6.037253;-0.506947
1.290;-6.044789;-0.500224
1.300;-6.051535;-0.492228
1.310;-6.056844;-0.483561
1.320;-6.060088;-0.474911
1.330;-6.060683;-0.466776
1.340;-6.058249;-0.459320
1.350;-6.052820;-0.452424
1.360;-6.044982;-0.445863
1.370;-6.035788;-0.439490
1.380;-6.026480;-0.433331
1.390;-6.018103;-0.427564
1.400;-6.011210;-0.422410
1.410;-6.005771;-0.418024
1.420;-6.001310;-0.414458
1.430;-5.997175;-0.411694
1.440;-5.992798;-0.409709
1.450;-5.987849;-0.408509
1.460;-5.982253;-0.408109
1.470;-5.976088;-0.408467
1.480;-5.969459;-0.409415
1.490;-5.962417;-0.410670
1.500;-5.954992;-0.411963
1.510;-5.947310;-0.413222
1.520;-5.939739;-0.414666
1.530;-5.932938;-0.416710
1.540;-5.927740;-0.419732
1.550;-5.924907;-0.423852
1.560;-5.924867;-0.428863
1.570;-5.927556;-0.434335
1.580;-5.932439;-0.439794
1.590;-5.938694;-0.444853
1.600;-5.945490;-0.449283
1.610;-5.952230;-0.453007
1.620;-5.958673;-0.456071
1.630;-5.964880;-0.458583
1.640;-5.971039;-0.460672
1.650;-5.977247;-0.462496
1.660;-5.983357;-0.464302
1.670;-5.988947;-0.466462
1.680;-5.993382;-0.469389
1.690;-5.995923;-0.473322
1.700;-5.995819;-0.478108
1.710;-5.992421;-0.483128
1.720;-5.985333;-0.487490
1.730;-5.974566;-0.490413
1.740;-5.960618;-0.491604
1.750;-5.944464;-0.491394
1.760;-5.927424;-0.490587
1.770;-5.910924;-0.490120
1.780;-5.896190;-0.490724
1.790;-5.883986;-0.492716
1.800;-5.874507;-0.495972
1.810;-5.867468;-0.500055
1.820;-5.862315;-0.504437
1.830;-5.858459;-0.508685
1.840;-5.855452;-0.512544
1.850;-5.853027;-0.515906
1.860;-5.851055;-0.518736
1.870;-5.849496;-0.521022
1.880;-5.848401;-0.522773
1.890;-5.847947;-0.524018
1.900;-5.848424;-0.524790
1.910;-5.850172;-0.525115
1.920;-5.853469;-0.525046
1.930;-5.858449;-0.524730
1.940;-5.865077;-0.524471
1.950;-5.873175;-0.524708
1.960;-5.882493;-0.525882
1.970;-5.892759;-0.528190
1.980;-5.903700;-0.531382
1.990;-5.915037;-0.534710
2.000;-5.926499;-0.537137
2.010;-5.937849;-0.537712
2.020;-5.948900;-0.535954
2.030;-5.959478;-0.532080
2.040;-5.969364;-0.527009
2.050;-5.978258;-0.522112
2.060;-5.985812;-0.518797
2.070;-5.991733;-0.518063
2.080;-5.995914;-0.520240
2.090;-5.998521;-0.524996
2.100;-5.999998;-0.531591
2.110;-6.000943;-0.539189
2.120;-6.001934;-0.547087
2.130;-6.003352;-0.554808
2.140;-6.005258;-0.562066
2.150;-6.007378;-0.568672
2.160;-6.009212;-0.574470
2.170;-6.010265;-0.579345
2.180;-6.010265;-0.583324
2.190;-6.009269;-0.586650
2.200;-6.007619;-0.589739
2.210;-6.005811;-0.593019
2.220;-6.004346;-0.596757
2.230;-6.003605;-0.600997
2.240;-6.003760;-0.605685
2.250;-6.004742;-0.610835
2.260;-6.006278;-0.616622
2.270;-6.007984;-0.623300
2.280;-6.009466;-0.630997
2.290;-6.010393;-0.639534
2.300;-6.010541;-0.648373
2.310;-6.009825;-0.656749
2.320;-6.008324;-0.663924
2.330;-6.006286;-0.669443
2.340;-6.004102;-0.673290
2.350;-6.002231;-0.675902
2.360;-6.001133;-0.678053
2.370;-6.001214;-0.680663
2.380;-6.002812;-0.684526
2.390;-6.006172;-0.690061
2.400;-6.011406;-0.697177
2.410;-6.018438;-0.705321
2.420;-6.026998;-0.713698
2.430;-6.036675;-0.721541
2.440;-6.047019;-0.728311
2.450;-6.057655;-0.733761
2.460;-6.068384;-0.737898
2.470;-6.079225;-0.740876
2.480;-6.090382;-0.742915
2.490;-6.102148;-0.744242
2.500;-6.114784;-0.745076
2.510;-6.128442;-0.745603
2.520;-6.143118;-0.745959
2.530;-6.158627;-0.746223
2.540;-6.174583;-0.746399
2.550;-6.190439;-0.746405
2.560;-6.205618;-0.746057
2.570;-6.219725;-0.745084
2.580;-6.232706;-0.743203
2.590;-6.244878;-0.740237
2.600;-6.256794;-0.736240
2.610;-6.269021;-0.731591
2.620;-6.281919;-0.726971
2.630;-6.295509;-0.723236
2.640;-6.309465;-0.721169
2.650;-6.323244;-0.721222
2.660;-6.336272;-0.723311
2.670;-6.348132;-0.726761
2.680;-6.358623;-0.730449
2.690;-6.367702;-0.733111
2.700;-6.375323;-0.733721
2.710;-6.381287;-0.731790
2.720;-6.385181;-0.727474
2.730;-6.386475;-0.721486
2.740;-6.384737;-0.714865
2.750;-6.379867;-0.708681
2.760;-6.372222;-0.703764
2.770;-6.362555;-0.700514
2.780;-6.351809;-0.698835
2.790;-6.340848;-0.698212
2.800;-6.330239;-0.697890
2.810;-6.320148;-0.697120
2.820;-6.310373;-0.695365
2.830;-6.300498;-0.692435
2.840;-6.290070;-0.688526
2.850;-6.278749;-0.684149
2.860;-6.266386;-0.679971
2.870;-6.253070;-0.676569
2.880;-6.239142;-0.674198
2.890;-6.225182;-0.672657
2.900;-6.211917;-0.671345
2.910;-6.200057;-0.669486
2.920;-6.190130;-0.666450
2.930;-6.182383;-0.661998
2.940;-6.176787;-0.656349
2.950;-6.173119;-0.650048
2.960;-6.171055;-0.643751
2.970;-6.170239;-0.638069
2.980;-6.170328;-0.633514
2.990;-6.171003;-0.630492
3.000;-6.171960;-0.629256
3.010;-6.172898;-0.629816
3.020;-6.173509;-0.631849
3.030;-6.173487;-0.634682
3.040;-6.172577;-0.637387
3.050;-6.170644;-0.638999
3.060;-6.167690;-0.638799
3.070;-6.163788;-0.636582
3.080;-6.158965;-0.632767
3.090;-6.153128;-0.628288
3.100;-6.146104;-0.624314
3.110;-6.137733;-0.621887
3.120;-6.127967;-0.621624
3.130;-6.116907;-0.623564
3.140;-6.104792;-0.627210
3.150;-6.091984;-0.631741
3.160;-6.078941;-0.636276
3.170;-6.066158;-0.640102
3.180;-6.054076;-0.642776
3.190;-6.042993;-0.644131
3.200;-6.033033;-0.644226
3.210;-6.024183;-0.643263
3.220;-6.016368;-0.641516
3.230;-6.009512;-0.639261
3.240;-6.003570;-0.636746
3.250;-5.998472;-0.634193
3.260;-5.994002;-0.631800
3.270;-5.989672;-0.629732
3.280;-5.984690;-0.628084
3.290;-5.978077;-0.626844
3.300;-5.968906;-0.625906
3.310;-5.956552;-0.625096
3.320;-5.940882;-0.624184
3.330;-5.922314;-0.622896
3.340;-5.901749;-0.620964
3.350;-5.880360;-0.618246
3.360;-5.859283;-0.614865
3.370;-5.839300;-0.611230
3.380;-5.820632;-0.607909
3.390;-5.802941;-0.605374
3.400;-5.785515;-0.603770
3.410;-5.767557;-0.602811
3.420;-5.748462;-0.601894
3.430;-5.728006;-0.600358
3.440;-5.706395;-0.597746
3.450;-5.684164;-0.593928
3.460;-5.661937;-0.589057
3.470;-5.640120;-0.583439
3.480;-5.618670;-0.577435
3.490;-5.597037;-0.571416
3.500;-5.574361;-0.565719
3.510;-5.549846;-0.560570
3.520;-5.523147;-0.556006
3.530;-5.494568;-0.551853
3.540;-5.464963;-0.547813
3.550;-5.435421;-0.543603
3.560;-5.406921;-0.539107
3.570;-5.380084;-0.534476
3.580;-5.355093;-0.530149
3.590;-5.331730;-0.526770
3.600;-5.309493;-0.524998
3.610;-5.287778;-0.525247
3.620;-5.266053;-0.527479
3.630;-5.243952;-0.531154
3.640;-5.221268;-0.535428
3.650;-5.197902;-0.539501
3.660;-5.173845;-0.542944
3.670;-5.149231;-0.545818
3.680;-5.124418;-0.548539
3.690;-5.100005;-0.551593
3.700;-5.076725;-0.555273
3.710;-5.055237;-0.559588
3.720;-5.035923;-0.564324
3.730;-5.018818;-0.569186
3.740;-5.003723;-0.573934
3.750;-4.990421;-0.578481
3.760;-4.978848;-0.582946
3.770;-4.969120;-0.587654
3.780;-4.961430;-0.593030
3.790;-4.955902;-0.599393
3.800;-4.952520;-0.606736
3.810;-4.951173;-0.614621
3.820;-4.951763;-0.622269
3.830;-4.954276;-0.628786
3.840;-4.958759;-0.633449
3.850;-4.965218;-0.635930
3.860;-4.973496;-0.636405
3.870;-4.983190;-0.635532
3.880;-4.993677;-0.634280
3.890;-5.004226;-0.633657
3.900;-5.014198;-0.634396
3.910;-5.023253;-0.636748
3.920;-5.031473;-0.640486
3.930;-5.039364;-0.645110
3.940;-5.047713;-0.650150
3.950;-5.057369;-0.655366
3.960;-5.068992;-0.660748
3.970;-5.082859;-0.666345
3.980;-5.098760;-0.672071
3.990;-5.116028;-0.677630
4.000;-5.133682;-0.682632
4.010;-5.150623;-0.686807
4.020;-5.165832;-0.690181
4.030;-5.178531;-0.693116
4.040;-5.188324;-0.696173
4.050;-5.195291;-0.699884
4.060;-5.200015;-0.704531
4.070;-5.203511;-0.710057
4.080;-5.207043;-0.716098
4.090;-5.211849;-0.722132
4.100;-5.218847;-0.727648
4.110;-5.228403;-0.732284
4.120;-5.240301;-0.735881
4.130;-5.253911;-0.738479
4.140;-5.268489;-0.740287
4.150;-5.283492;-0.741635
4.160;-5.298775;-0.742898
4.170;-5.314616;-0.744377
4.180;-5.331560;-0.746191
4.190;-5.350170;-0.748236
4.200;-5.370785;-0.750234
4.210;-5.393388;-0.751842
4.220;-5.417639;-0.752750
4.230;-5.443017;-0.752759
4.240;-5.469020;-0.751812
4.250;-5.495282;-0.750026
4.260;-5.521585;-0.747716
4.270;-5.547785;-0.745349
4.280;-5.573722;-0.743438
4.290;-5.599188;-0.742428
4.300;-5.623941;-0.742635
4.310;-5.647755;-0.744248
4.320;-5.670436;-0.747322
4.330;-5.691829;-0.751753
4.340;-5.711813;-0.757216
4.350;-5.730333;-0.763166
4.360;-5.747444;-0.768911
4.370;-5.763318;-0.773782
4.380;-5.778188;-0.777336
4.390;-5.792256;-0.779502
4.400;-5.805641;-0.780627
4.410;-5.818412;-0.781381
4.420;-5.830675;-0.782573
4.430;-5.842646;-0.784927
4.440;-5.854621;-0.788848
4.450;-5.866905;-0.794292
4.460;-5.879759;-0.800769
4.470;-5.893422;-0.807519
4.480;-5.908184;-0.813791
4.490;-5.924440;-0.819104
4.500;-5.942672;-0.823358
4.510;-5.963357;-0.826751
4.520;-5.986832;-0.829589
4.530;-6.013148;-0.832108
4.540;-6.041979;-0.834409
4.550;-6.072630;-0.836510
4.560;-6.104189;-0.838432
4.570;-6.135775;-0.840246
4.580;-6.166779;-0.842065
4.590;-6.196990;-0.843955
4.600;-6.226575;-0.845853
4.610;-6.255959;-0.847509
4.620;-6.285648;-0.848538
4.630;-6.316069;-0.848558
4.640;-6.347442;-0.847372
4.650;-6.379728;-0.845100
4.660;-6.412625;-0.842168
4.670;-6.445593;-0.839147
4.680;-6.477882;-0.836520
4.690;-6.508608;-0.834515
4.700;-6.536910;-0.833103
4.710;-6.562176;-0.832135
4.720;-6.584239;-0.831517
4.730;-6.603431;-0.831304
4.740;-6.620409;-0.831651
4.750;-6.635834;-0.832656
4.760;-6.650026;-0.834232
4.770;-6.662793;-0.836075
4.780;-6.673477;-0.837753
4.790;-6.681188;-0.838854
4.800;-6.685119;-0.839107
4.810;-6.684811;-0.838452
4.820;-6.680297;-0.837023
4.830;-6.672094;-0.835070
4.840;-6.661079;-0.832856
4.850;-6.648289;-0.830599
4.860;-6.634728;-0.828455
4.870;-6.621216;-0.826570
4.880;-6.608324;-0.825110
4.890;-6.596381;-0.824256
4.900;-6.585527;-0.824134
4.910;-6.575795;-0.824712
4.920;-6.567202;-0.825718
4.930;-6.559845;-0.826625
4.940;-6.553961;-0.826710
4.950;-6.549868;-0.825183
4.960;-6.547787;-0.821356
4.970;-6.547583;-0.814873
4.980;-6.548589;-0.805902
4.990;-6.549602;-0.795206
5.000;-6.549113;-0.783985
5.010;-6.545658;-0.773553
5.020;-6.538138;-0.764977
5.030;-6.526003;-0.758819
5.040;-6.509256;-0.755048
5.050;-6.488363;-0.753116
5.060;-6.464116;-0.752163
5.070;-6.437489;-0.751281
5.080;-6.409482;-0.749756
5.090;-6.381004;-0.747234
5.100;-6.352815;-0.743754
5.110;-6.325537;-0.739681
5.120;-6.299677;-0.735552
5.130;-6.275623;-0.731908
5.140;-6.253600;-0.729123
5.150;-6.233624;-0.727293
5.160;-6.215480;-0.726211
5.170;-6.198717;-0.725463
5.180;-6.182687;-0.724598
5.190;-6.166628;-0.723317
5.200;-6.149828;-0.721598
5.210;-6.131811;-0.719684
5.220;-6.112491;-0.717963
5.230;-6.092203;-0.716781
5.240;-6.071603;-0.716283
5.250;-6.051470;-0.716320
5.260;-6.032473;-0.716470
5.270;-6.014985;-0.716177
5.280;-5.999028;-0.714970
5.290;-5.984361;-0.712688
5.300;-5.970704;-0.709625
5.310;-5.957966;-0.706504
5.320;-5.946376;-0.704275
5.330;-5.936437;-0.703782
5.340;-5.928753;-0.705437
5.350;-5.923795;-0.709062
5.360;-5.921716;-0.713965
5.370;-5.922293;-0.719220
5.380;-5.924991;-0.724017
5.390;-5.929104;-0.727891
5.400;-5.933873;-0.730730
5.410;-5.938543;-0.732600
5.420;-5.942355;-0.733522
5.430;-5.944526;-0.733374
5.440;-5.944265;-0.731961
5.450;-5.940849;-0.729197
5.460;-5.933765;-0.725240
5.470;-5.922857;-0.720493
5.480;-5.908434;-0.715486
5.490;-5.891288;-0.710752
5.500;-5.872604;-0.706725
5.510;-5.853755;-0.703687
5.520;-5.836044;-0.701739
5.530;-5.820473;-0.700798
5.540;-5.807600;-0.700644
5.550;-5.797484;-0.701007
5.560;-5.789690;-0.701656
5.570;-5.783367;-0.702417
5.580;-5.777410;-0.703129
5.590;-5.770718;-0.703579
5.600;-5.762507;-0.703491
5.610;-5.752545;-0.702587
5.620;-5.741198;-0.700681
5.630;-5.729241;-0.697721
5.640;-5.717506;-0.693763
5.650;-5.706542;-0.688878
5.660;-5.696417;-0.683094
5.670;-5.686741;-0.676426
5.680;-5.676876;-0.668985
5.690;-5.666221;-0.661088
5.700;-5.654416;-0.653252
5.710;-5.641400;-0.646044
5.720;-5.627326;-0.639873
5.730;-5.612440;-0.634845
5.740;-5.597007;-0.630773
5.750;-5.581348;-0.627297
5.760;-5.565899;-0.624034
5.770;-5.551191;-0.620637
5.780;-5.537683;-0.616773
5.790;-5.525554;-0.612074
5.800;-5.514614;-0.606170
5.810;-5.504420;-0.598822
5.820;-5.494542;-0.590105
5.830;-5.484876;-0.580548
5.840;-5.475839;-0.571120
5.850;-5.468364;-0.562991
5.860;-5.463623;-0.557113
5.870;-5.462591;-0.553811
5.880;-5.465637;-0.552589
5.890;-5.472359;-0.552308
5.900;-5.481747;-0.551653
5.910;-5.492583;-0.549697
5.920;-5.503859;-0.546276
5.930;-5.515001;-0.542003
5.940;-5.525826;-0.537909
5.950;-5.536291;-0.534938
5.960;-5.546215;-0.533533
5.970;-5.555140;-0.533505
5.980;-5.562403;-0.534181
5.990;-5.567358;-0.534682
6.000;-5.569620;-0.534186
6.010;-5.569214;-0.532108
6.020;-5.566598;-0.528202
6.030;-5.562534;-0.522584
6.040;-5.557902;-0.515697
6.050;-5.553498;-0.508190
6.060;-5.549907;-0.500775
6.070;-5.547474;-0.494108
6.080;-5.546358;-0.488707
6.090;-5.546602;-0.484895
6.100;-5.548157;-0.482755
6.110;-5.550861;-0.482071
6.120;-5.554417;-0.482310
6.130;-5.558452;-0.482697
6.140;-5.562654;-0.482414
6.150;-5.566926;-0.480857
6.160;-5.571433;-0.477837
6.170;-5.576500;-0.473596
6.180;-5.582407;-0.468623
6.190;-5.589218;-0.463386
6.200;-5.596742;-0.458119
6.210;-5.604620;-0.452788
6.220;-5.612454;-0.447223
6.230;-5.619926;-0.441326
6.240;-5.626881;-0.435248
6.250;-5.633382;-0.429425
6.260;-5.639746;-0.424433
6.270;-5.646541;-0.420726
6.280;-5.654529;-0.418384
6.290;-5.664524;-0.417038
6.300;-5.677172;-0.415998
6.310;-5.692723;-0.414540
6.320;-5.710893;-0.412158
6.330;-5.730898;-0.408694
6.340;-5.751651;-0.404282
6.350;-5.772043;-0.399202
6.360;-5.791220;-0.393734
6.370;-5.808773;-0.388074
6.380;-5.824817;-0.382318
6.390;-5.839919;-0.376502
6.400;-5.854868;-0.370685
6.410;-5.870367;-0.365060
6.420;-5.886762;-0.360015
6.430;-5.903919;-0.356065
6.440;-5.921280;-0.353638
6.450;-5.938094;-0.352802
6.460;-5.953715;-0.353113
6.470;-5.967820;-0.353727
6.480;-5.980491;-0.353718
6.490;-5.992163;-0.352442
6.500;-6.003499;-0.349737
6.510;-6.015209;-0.345907
6.520;-6.027863;-0.341537
6.530;-6.041746;-0.337251
6.540;-6.056824;-0.333502
6.550;-6.072835;-0.330428
6.560;-6.089434;-0.327821
6.570;-6.106336;-0.325230
6.580;-6.123404;-0.322164
6.590;-6.140671;-0.318324
6.600;-6.158334;-0.313758
6.610;-6.176678;-0.308888
6.620;-6.195959;-0.304379
6.630;-6.216265;-0.300890
6.640;-6.237440;-0.298830
6.650;-6.259143;-0.298230
6.660;-6.281021;-0.298773
6.670;-6.302858;-0.299927
6.680;-6.324597;-0.301091
6.690;-6.346231;-0.301708
6.700;-6.367681;-0.301388
6.710;-6.388787;-0.300026
6.720;-6.409413;-0.297895
6.730;-6.429565;-0.295621
6.740;-6.449412;-0.294002
6.750;-6.469161;-0.293714
6.760;-6.488873;-0.295039
6.770;-6.508322;-0.297727
6.780;-6.527013;-0.301089
6.790;-6.544327;-0.304284
6.800;-6.559702;-0.306645
6.810;-6.572732;-0.307907
6.820;-6.583160;-0.308265
6.830;-6.590801;-0.308254
6.840;-6.595494;-0.308522
6.850;-6.597108;-0.309571
6.860;-6.595614;-0.311585
6.870;-6.591158;-0.314430
6.880;-6.584109;-0.317790
6.890;-6.575021;-0.321346
6.900;-6.564521;-0.324880
6.910;-6.553162;-0.328278
6.920;-6.541321;-0.331453
6.930;-6.529169;-0.334248
6.940;-6.516732;-0.336393
6.950;-6.503971;-0.337557
6.960;-6.490883;-0.337484
6.970;-6.477585;-0.336161
6.980;-6.464343;-0.333935
6.990;-6.451550;-0.331481
7.000;-6.439660;-0.329642
7.010;-6.429131;-0.329161
7.020;-6.420382;-0.330428
7.030;-6.413732;-0.333324
7.040;-6.409331;-0.337207
7.050;-6.407095;-0.341046
7.060;-6.406743;-0.343658
7.070;-6.407915;-0.344010
7.080;-6.410308;-0.341519
7.090;-6.413745;-0.336248
7.100;-6.418138;-0.328914
7.110;-6.423433;-0.320695
7.120;-6.429569;-0.312878
7.130;-6.436462;-0.306486
7.140;-6.443995;-0.302001
7.150;-6.451996;-0.299324
7.160;-6.460245;-0.297951
7.170;-6.468505;-0.297271
7.180;-6.476600;-0.296830
7.190;-6.484468;-0.296439
7.200;-6.492152;-0.296126
7.210;-6.499722;-0.295960
7.220;-6.507184;-0.295872
7.230;-6.514420;-0.295573
7.240;-6.521183;-0.294616
7.250;-6.527114;-0.292578
7.260;-6.531791;-0.289240
7.270;-6.534830;-0.284697
7.280;-6.536008;-0.279361
7.290;-6.535312;-0.273887
7.300;-6.532900;-0.269048
7.310;-6.528956;-0.265565
7.320;-6.523568;-0.263927
7.330;-6.516694;-0.264237
7.340;-6.508240;-0.266135
7.350;-6.498144;-0.268855
7.360;-6.486397;-0.271442
7.370;-6.473004;-0.273074
7.380;-6.457954;-0.273333
7.390;-6.441261;-0.272311
7.400;-6.423055;-0.270490
7.410;-6.403668;-0.268495
7.420;-6.383654;-0.266832
7.430;-6.363724;-0.265735
7.440;-6.344633;-0.265164
7.450;-6.326997;-0.264883
7.460;-6.311125;-0.264553
7.470;-6.296944;-0.263778
7.480;-6.284068;-0.262155
7.490;-6.271965;-0.259391
7.500;-6.260129;-0.255439
7.510;-6.248182;-0.250558
7.520;-6.235918;-0.245250
7.530;-6.223284;-0.240076
7.540;-6.210331;-0.235493
7.550;-6.197129;-0.231773
7.560;-6.183691;-0.228990
7.570;-6.169943;-0.227028
7.580;-6.155762;-0.225576
7.590;-6.141060;-0.224178
7.600;-6.125880;-0.222349
7.610;-6.110452;-0.219770
7.620;-6.095171;-0.216485
7.630;-6.080480;-0.213021
7.640;-6.066715;-0.210350
7.650;-6.054005;-0.209650
7.660;-6.042260;-0.211932
7.670;-6.031272;-0.217634
7.680;-6.020854;-0.226356
