Time[s];COPx[cm];COPy[cm]
0.010;0.788193;-0.183660
0.020;0.768964;-0.191751
0.030;0.750433;-0.199911
0.040;0.733104;-0.208116
0.050;0.717039;-0.216231
0.060;0.701829;-0.223984
0.070;0.686693;-0.231018
0.080;0.670660;-0.237081
0.090;0.652799;-0.242277
0.100;0.632407;-0.247223
0.110;0.609104;-0.252964
0.120;0.582838;-0.260618
0.130;0.553767;-0.270905
0.140;0.522131;-0.283792
0.150;0.488148;-0.298417
0.160;0.452002;-0.313314
0.170;0.413902;-0.326853
0.180;0.374137;-0.337683
0.190;0.333102;-0.345054
0.200;0.291269;-0.348930
0.210;0.249146;-0.349909
0.220;0.207253;-0.349007
0.230;0.166105;-0.347359
0.240;0.126179;-0.345950
0.250;0.087873;-0.345409
0.260;0.051474;-0.345951
0.270;0.017166;-0.347440
0.280;-0.014926;-0.349552
0.290;-0.044709;-0.351935
0.300;-0.072164;-0.354289
0.310;-0.097421;-0.356321
0.320;-0.120840;-0.357653
0.330;-0.143061;-0.357769
0.340;-0.165025;-0.356067
0.350;-0.187972;-0.351967
0.360;-0.213414;-0.345035
0.370;-0.242989;-0.335096
0.380;-0.278165;-0.322382
0.390;-0.319843;-0.307700
0.400;-0.367998;-0.292541
0.410;-0.421562;-0.278991
0.420;-0.478678;-0.269360
0.430;-0.537310;-0.265594
0.440;-0.595975;-0.268687
0.450;-0.654292;-0.278381
0.460;-0.713097;-0.293323
0.470;-0.774107;-0.311595
0.480;-0.839291;-0.331361
0.490;-0.910212;-0.351345
0.500;-0.987548;-0.370989
0.510;-1.070869;-0.390322
0.520;-1.158720;-0.409677
0.530;-1.248937;-0.429413
0.540;-1.339181;-0.449695
0.550;-1.427518;-0.470347
0.560;-1.512898;-0.490774
0.570;-1.595383;-0.509986
0.580;-1.676081;-0.526744
0.590;-1.756876;-0.539828
0.600;-1.840075;-0.548351
0.610;-1.928034;-0.552005
0.620;-2.022742;-0.551145
0.630;-2.125356;-0.546697
0.640;-2.235678;-0.539966
0.650;-2.351724;-0.532459
0.660;-2.469570;-0.525786
0.670;-2.583676;-0.521616
0.680;-2.687780;-0.521584
0.690;-2.776201;-0.527047
0.700;-2.845190;-0.538674
0.710;-2.893821;-0.556071
0.720;-2.924088;-0.577670
0.730;-2.940169;-0.601043
0.740;-2.947191;-0.623543
0.750;-2.949993;-0.643007
0.760;-2.952295;-0.658279
0.770;-2.956407;-0.669402
0.780;-2.963371;-0.677462
0.790;-2.973308;-0.684146
0.800;-2.985798;-0.691138
0.810;-3.000233;-0.699533
0.820;-3.016125;-0.709431
0.830;-3.033353;-0.719886
0.840;-3.052242;-0.729224
0.850;-3.073417;-0.735660
0.860;-3.097461;-0.737956
0.870;-3.124484;-0.735845
0.880;-3.153726;-0.730038
0.890;-3.183360;-0.721806
0.900;-3.210587;-0.712378
0.910;-3.232076;-0.702408
0.920;-3.244672;-0.691756
0.930;-3.246155;-0.679618
0.940;-3.235753;-0.664894
0.950;-3.214233;-0.646581
0.960;-3.183522;-0.624038
0.970;-3.146055;-0.597056
0.980;-3.104078;-0.565794
0.990;-3.059137;-0.530660
1.000;-3.011891;-0.492208
1.010;-2.962251;-0.451104
1.020;-2.909777;-0.408167
1.030;-2.854155;-0.364422
1.040;-2.795575;-0.321085
1.050;-2.734833;-0.279397
1.060;-2.673125;-0.240357
1.070;-2.611614;-0.204452
1.080;-2.551006;-0.171549
1.090;-2.491292;-0.141036
1.100;-2.431749;-0.112113
1.110;-2.371190;-0.084084
1.120;-2.308371;-0.056483
1.130;-2.242478;-0.029008
1.140;-2.173523;-0.001412
1.150;-2.102544;0.026520
1.160;-2.031501;0.054864
1.170;-1.962891;0.083392
1.180;-1.899196;0.111528
1.190;-1.842332;0.138499
1.200;-1.793279;0.163653
1.210;-1.751989;0.186760
1.220;-1.717555;0.208140
1.230;-1.688549;0.228527
1.240;-1.663383;0.248756
1.250;-1.640566;0.269459
1.260;-1.618786;0.290922
1.270;-1.596893;0.313128
1.280;-1.573863;0.335916
1.290;-1.548839;0.359157
1.300;-1.521238;0.382866
1.310;-1.490847;0.407220
1.320;-1.457825;0.432494
1.330;-1.422605;0.458940
1.340;-1.385728;0.486671
1.350;-1.347683;0.515546
1.360;-1.308793;0.545111
1.370;-1.269178;0.574596
1.380;-1.228815;0.603011
1.390;-1.187659;0.629323
1.400;-1.145761;0.652680
1.410;-1.103313;0.672648
1.420;-1.060593;0.689355
1.430;-1.017840;0.703469
1.440;-0.975151;0.715971
1.450;-0.932416;0.727813
1.460;-0.889351;0.739608
1.470;-0.845590;0.751524
1.480;-0.800814;0.763376
1.490;-0.754869;0.774839
1.500;-0.707825;0.785618
1.510;-0.659980;0.795529
1.520;-0.611838;0.804508
1.530;-0.564056;0.812601
1.540;-0.517393;0.819936
1.550;-0.472623;0.826654
1.560;-0.430419;0.832809
1.570;-0.391209;0.838286
1.580;-0.355050;0.842792
1.590;-0.321586;0.845953
1.600;-0.290118;0.847480
1.610;-0.259842;0.847335
1.620;-0.230157;0.845815
1.630;-0.200978;0.843478
1.640;-0.172906;0.840946
1.650;-0.147191;0.838687
1.660;-0.125480;0.836884
1.670;-0.109405;0.835467
1.680;-0.100149;0.834242
1.690;-0.098141;0.833024
1.700;-0.103006;0.831681
1.710;-0.113757;0.830087
1.720;-0.129108;0.828032
1.730;-0.147742;0.825190
1.740;-0.168446;0.821223
1.750;-0.190160;0.815980
1.760;-0.212015;0.809674
1.770;-0.233401;0.802871
1.780;-0.254047;0.796255
1.790;-0.274044;0.790285
1.800;-0.293744;0.784967
1.810;-0.313539;0.779875
1.820;-0.333615;0.774404
1.830;-0.353765;0.768097
1.840;-0.373342;0.760848
1.850;-0.391377;0.752931
1.860;-0.406816;0.744910
1.870;-0.418807;0.737502
1.880;-0.426935;0.731424
1.890;-0.431352;0.727221
1.900;-0.432759;0.725107
1.910;-0.432272;0.724894
1.920;-0.431190;0.726056
1.930;-0.430764;0.727913
1.940;-0.432036;0.729859
1.950;-0.435753;0.731514
1.960;-0.442345;0.732762
1.970;-0.451902;0.733671
1.980;-0.464175;0.734355
1.990;-0.478654;0.734883
2.000;-0.494769;0.735284
2.010;-0.512155;0.735626
2.020;-0.530881;0.736080
2.030;-0.551542;0.736900
2.040;-0.575171;0.738278
2.050;-0.603015;0.740162
2.060;-0.636252;0.742136
2.070;-0.675728;0.743468
2.080;-0.721700;0.743323
2.090;-0.773604;0.741038
2.100;-0.829901;0.736332
2.110;-0.888159;0.729368
2.120;-0.945439;0.720686
2.130;-0.998942;0.711034
2.140;-1.046686;0.701145
2.150;-1.087956;0.691513
2.160;-1.123351;0.682256
2.170;-1.154428;0.673130
2.180;-1.183134;0.663700
2.190;-1.211264;0.653598
2.200;-1.240149;0.642743
2.210;-1.270599;0.631398
2.220;-1.302987;0.620025
2.230;-1.337353;0.608992
2.240;-1.373476;0.598295
2.250;-1.410978;0.587465
2.260;-1.449469;0.575737
2.270;-1.488745;0.562409
2.280;-1.528943;0.547192
2.290;-1.570612;0.530368
2.300;-1.614667;0.512691
2.310;-1.662271;0.495100
2.320;-1.714627;0.478358
2.330;-1.772737;0.462752
2.340;-1.837111;0.447946
2.350;-1.907507;0.433071
2.360;-1.982771;0.417025
2.370;-2.060885;0.398844
2.380;-2.139245;0.378002
2.390;-2.215144;0.354528
2.400;-2.286330;0.328950
2.410;-2.351469;0.302129
2.420;-2.410310;0.275049
2.430;-2.463502;0.248593
2.440;-2.512142;0.223337
2.450;-2.557264;0.199392
2.460;-2.599448;0.176334
2.470;-2.638675;0.153244
2.480;-2.674433;0.128844
2.490;-2.706011;0.101724
2.500;-2.732825;0.070639
2.510;-2.754658;0.034827
2.520;-2.771732;-0.005740
2.530;-2.784664;-0.050286
2.540;-2.794369;-0.097378
2.550;-2.801960;-0.145294
2.560;-2.808632;-0.192538
2.570;-2.815508;-0.238333
2.580;-2.823479;-0.282903
2.590;-2.833061;-0.327343
2.600;-2.844316;-0.373066
2.610;-2.856848;-0.421015
2.620;-2.869820;-0.470925
2.630;-2.882005;-0.520921
2.640;-2.891842;-0.567656
2.650;-2.897559;-0.606974
2.660;-2.897364;-0.634926
2.670;-2.889731;-0.648825
2.680;-2.873704;-0.647993
2.690;-2.849127;-0.633969
2.700;-2.816692;-0.610132
2.710;-2.777735;-0.580874
2.720;-2.733840;-0.550563
2.730;-2.686357;-0.522621
2.740;-2.636026;-0.498940
2.750;-2.582845;-0.479786
2.760;-2.526222;-0.464118
2.770;-2.465327;-0.450188
2.780;-2.399495;-0.436182
2.790;-2.328562;-0.420740
2.800;-2.253054;-0.403243
2.810;-2.174196;-0.383879
2.820;-2.093761;-0.363512
2.830;-2.013807;-0.343423
2.840;-1.936383;-0.324987
2.850;-1.863278;-0.309367
2.860;-1.795871;-0.297318
2.870;-1.735088;-0.289156
2.880;-1.681456;-0.284885
2.890;-1.635188;-0.284358
2.900;-1.596193;-0.287361
2.910;-1.563984;-0.293595
2.920;-1.537521;-0.302617
2.930;-1.515164;-0.313849
2.940;-1.494850;-0.326643
2.950;-1.474477;-0.340363
2.960;-1.452352;-0.354414
2.970;-1.427496;-0.368234
2.980;-1.399687;-0.381310
2.990;-1.369239;-0.393239
3.000;-1.336658;-0.403820
3.010;-1.302268;-0.413128
3.020;-1.265951;-0.421480
3.030;-1.227045;-0.429257
3.040;-1.184447;-0.436660
3.050;-1.136902;-0.443497
3.060;-1.083383;-0.449170
3.070;-1.023451;-0.452936
3.080;-0.957460;-0.454343
3.090;-0.886560;-0.453649
3.100;-0.812460;-0.451934
3.110;-0.737074;-0.450821
3.120;-0.662156;-0.451916
3.130;-0.589052;-0.456225
3.140;-0.518630;-0.463821
3.150;-0.451355;-0.473862
3.160;-0.387453;-0.484913
3.170;-0.327098;-0.495434
3.180;-0.270553;-0.504228
3.190;-0.218249;-0.510734
3.200;-0.170786;-0.515057
3.210;-0.128867;-0.517716
3.220;-0.093208;-0.519233
3.230;-0.064436;-0.519781
3.240;-0.042998;-0.519058
3.250;-0.029088;-0.516409
3.260;-0.022600;-0.511095
3.270;-0.023097;-0.502572
3.280;-0.029789;-0.490676
3.290;-0.041559;-0.475645
3.300;-0.057057;-0.458005
3.310;-0.074875;-0.438388
3.320;-0.093758;-0.417368
3.330;-0.112778;-0.395383
3.340;-0.131427;-0.372719
3.350;-0.149617;-0.349550
3.360;-0.167597;-0.325998
3.370;-0.185835;-0.302200
3.380;-0.204887;-0.278373
3.390;-0.225312;-0.254837
3.400;-0.247651;-0.231981
3.410;-0.272452;-0.210176
3.420;-0.300284;-0.189672
3.430;-0.331668;-0.170545
3.440;-0.366916;-0.152745
3.450;-0.405948;-0.136275
3.460;-0.448178;-0.121420
3.470;-0.492541;-0.108870
3.480;-0.537663;-0.099594
3.490;-0.582107;-0.094480
3.500;-0.624629;-0.093907
3.510;-0.664352;-0.097499
3.520;-0.700842;-0.104169
3.530;-0.734061;-0.112433
3.540;-0.764230;-0.120823
3.550;-0.791674;-0.128255
3.560;-0.816706;-0.134275
3.570;-0.839587;-0.139153
3.580;-0.860514;-0.143791
3.590;-0.879589;-0.149462
3.600;-0.896762;-0.157430
3.610;-0.911816;-0.168570
3.620;-0.924449;-0.183074
3.630;-0.934451;-0.200346
3.640;-0.941918;-0.219151
3.650;-0.947410;-0.237982
3.660;-0.951973;-0.255515
3.670;-0.957014;-0.270965
3.680;-0.964050;-0.284223
3.690;-0.974425;-0.295786
3.700;-0.989110;-0.306530
3.710;-1.008637;-0.317436
3.720;-1.033204;-0.329349
3.730;-1.062867;-0.342794
3.740;-1.097689;-0.357882
3.750;-1.137757;-0.374306
3.760;-1.183052;-0.391440
3.770;-1.233299;-0.408521
3.780;-1.287925;-0.424830
3.790;-1.346154;-0.439822
3.800;-1.407211;-0.453165
3.810;-1.470502;-0.464707
3.820;-1.535672;-0.474397
3.830;-1.602481;-0.482213
3.840;-1.670531;-0.488147
3.850;-1.738935;-0.492269
3.860;-1.806079;-0.494851
3.870;-1.869639;-0.496474
3.880;-1.926929;-0.498028
3.890;-1.975517;-0.500552
3.900;-2.013855;-0.504962
3.910;-2.041660;-0.511767
3.920;-2.059866;-0.520920
3.930;-2.070203;-0.531831
3.940;-2.074627;-0.543491
3.950;-2.074832;-0.554623
3.960;-2.072016;-0.563815
3.970;-2.066899;-0.569721
3.980;-2.059900;-0.571337
3.990;-2.051357;-0.568321
4.000;-2.041702;-0.561169
4.010;-2.031566;-0.551149
4.020;-2.021822;-0.539978
4.030;-2.013524;-0.529342
4.040;-2.007758;-0.520439
4.050;-2.005407;-0.513703
4.060;-2.006932;-0.508798
4.070;-2.012262;-0.504863
4.080;-2.020847;-0.500916
4.090;-2.031869;-0.496248
4.100;-2.044490;-0.490665
4.110;-2.058068;-0.484458
4.120;-2.072271;-0.478157
4.130;-2.087104;-0.472194
4.140;-2.102841;-0.466651
4.150;-2.119879;-0.461200
4.160;-2.138587;-0.455254
4.170;-2.159180;-0.448250
4.180;-2.181694;-0.439914
4.190;-2.206025;-0.430363
4.200;-2.231992;-0.419972
4.210;-2.259332;-0.409100
4.220;-2.287636;-0.397817
4.230;-2.316268;-0.385770
4.240;-2.344363;-0.372225
4.250;-2.370920;-0.356262
4.260;-2.394953;-0.337052
4.270;-2.415638;-0.314164
4.280;-2.432368;-0.287770
4.290;-2.444692;-0.258704
4.300;-2.452217;-0.228341
4.310;-2.454565;-0.198362
4.320;-2.451443;-0.170482
4.330;-2.442790;-0.146188
4.340;-2.428894;-0.126533
4.350;-2.410381;-0.111995
4.360;-2.388103;-0.102443
4.370;-2.362953;-0.097210
4.380;-2.335701;-0.095286
4.390;-2.306874;-0.095585
4.400;-2.276730;-0.097182
4.410;-2.245333;-0.099463
4.420;-2.212711;-0.102106
4.430;-2.179049;-0.104914
4.440;-2.144841;-0.107578
4.450;-2.110945;-0.109510
4.460;-2.078522;-0.109859
4.470;-2.048888;-0.107704
4.480;-2.023271;-0.102320
4.490;-2.002560;-0.093399
4.500;-1.987114;-0.081136
4.510;-1.976747;-0.066154
4.520;-1.970925;-0.049298
4.530;-1.969063;-0.031352
4.540;-1.970765;-0.012810
4.550;-1.975854;0.006210
4.560;-1.984227;0.025861
4.570;-1.995647;0.046342
4.580;-2.009652;0.067681
4.590;-2.025641;0.089633
4.600;-2.043086;0.111715
4.610;-2.061741;0.133363
4.620;-2.081718;0.154116
4.630;-2.103410;0.173748
4.640;-2.127312;0.192258
4.650;-2.153808;0.209745
4.660;-2.182982;0.226293
4.670;-2.214480;0.241976
4.680;-2.247484;0.256970
4.690;-2.280800;0.271645
4.700;-2.313073;0.286558
4.710;-2.343025;0.302361
4.720;-2.369627;0.319683
4.730;-2.392121;0.339024
4.740;-2.409911;0.360635
4.750;-2.422403;0.384384
4.760;-2.428900;0.409679
4.770;-2.428629;0.435508
4.780;-2.420917;0.460627
4.790;-2.405461;0.483870
4.800;-2.382601;0.504475
4.810;-2.353455;0.522280
4.820;-2.319802;0.537698
4.830;-2.283693;0.551500
4.840;-2.246908;0.564539
4.850;-2.210480;0.577518
4.860;-2.174531;0.590855
4.870;-2.138521;0.604631
4.880;-2.101784;0.618614
4.890;-2.064120;0.632364
4.900;-2.026158;0.645409
4.910;-1.989362;0.657463
4.920;-1.955729;0.668600
4.930;-1.927332;0.679293
4.940;-1.905879;0.690250
4.950;-1.892387;0.702127
4.960;-1.887000;0.715233
4.970;-1.888980;0.729384
4.980;-1.896915;0.743972
4.990;-1.909081;0.758198
5.000;-1.923817;0.771358
5.010;-1.939756;0.783052
5.020;-1.955852;0.793258
5.030;-1.971259;0.802271
5.040;-1.985218;0.810578
5.050;-1.997050;0.818703
5.060;-2.006267;0.827087
5.070;-2.012698;0.835983
5.080;-2.016532;0.845407
5.090;-2.018245;0.855140
5.100;-2.018423;0.864811
5.110;-2.017580;0.874009
5.120;-2.016053;0.882402
5.130;-2.014012;0.889781
5.140;-2.011559;0.896053
5.150;-2.008843;0.901214
5.160;-2.006161;0.905340
5.170;-2.004020;0.908585
5.180;-2.003155;0.911178
5.190;-2.004466;0.913392
5.200;-2.008870;0.915498
5.210;-2.017083;0.917722
5.220;-2.029396;0.920210
5.230;-2.045553;0.923000
5.240;-2.064846;0.926042
5.250;-2.086421;0.929260
5.260;-2.109675;0.932690
5.270;-2.134572;0.936612
5.280;-2.161741;0.941613
5.290;-2.192309;0.948448
5.300;-2.227495;0.957702
5.310;-2.268063;0.969362
5.320;-2.313803;0.982557
5.330;-2.363301;0.995617
5.340;-2.414160;1.006471
5.350;-2.463645;1.013236
5.360;-2.509471;1.014757
5.370;-2.550402;1.010916
5.380;-2.586422;1.002594
5.390;-2.618485;0.991318
5.400;-2.648024;0.978782
5.410;-2.676438;0.966429
5.420;-2.704704;0.955193
5.430;-2.733195;0.945407
5.440;-2.761705;0.936845
5.450;-2.789666;0.928872
5.460;-2.816463;0.920699
5.470;-2.841770;0.911683
5.480;-2.865755;0.901607
5.490;-2.889105;0.890819
5.500;-2.912861;0.880172
5.510;-2.938138;0.870736
5.520;-2.965819;0.863400
5.530;-2.996299;0.858532
5.540;-3.029307;0.855821
5.550;-3.063807;0.854363
5.560;-3.098041;0.852918
5.570;-3.129783;0.850253
5.580;-3.156837;0.845470
5.590;-3.177651;0.838233
5.600;-3.191792;0.828839
5.610;-3.200060;0.818066
5.620;-3.204190;0.806877
5.630;-3.206285;0.796122
5.640;-3.208233;0.786372
5.650;-3.211301;0.777909
5.660;-3.215966;0.770782
5.670;-3.221946;0.764865
5.680;-3.228338;0.759903
5.690;-3.233811;0.755557
5.700;-3.236842;0.751443
5.710;-3.236020;0.747152
5.720;-3.230339;0.742273
5.730;-3.219374;0.736478
5.740;-3.203227;0.729668
5.750;-3.182257;0.722136
5.760;-3.156721;0.714595
5.770;-3.126551;0.708035
5.780;-3.091410;0.703418
5.790;-3.051015;0.701358
5.800;-3.005556;0.701926
5.810;-2.955985;0.704644
5.820;-2.904030;0.708680
5.830;-2.851914;0.713156
5.840;-2.801877;0.717467
5.850;-2.755644;0.721472
5.860;-2.714010;0.725489
5.870;-2.676677;0.730116
5.880;-2.642450;0.735967
5.890;-2.609696;0.743454
5.900;-2.576950;0.752691
5.910;-2.543424;0.763525
5.920;-2.509247;0.775602
5.930;-2.475317;0.788411
5.940;-2.442838;0.801288
5.950;-2.412731;0.813416
5.960;-2.385179;0.823874
5.970;-2.359537;0.831760
5.980;-2.334650;0.836349
5.990;-2.309427;0.837214
6.000;-2.283369;0.834247
6.010;-2.256795;0.827609
6.020;-2.230672;0.817653
6.030;-2.206188;0.804887
6.040;-2.184255;0.789978
6.050;-2.165142;0.773749
6.060;-2.148354;0.757113
6.070;-2.132799;0.740963
6.080;-2.117177;0.726020
6.090;-2.100438;0.712715
6.100;-2.082126;0.701106
6.110;-2.062497;0.690894
6.120;-2.042385;0.681528
6.130;-2.022889;0.672411
6.140;-2.004990;0.663147
6.150;-1.989185;0.653710
6.160;-1.975241;0.644452
6.170;-1.962101;0.635954
6.180;-1.948015;0.628791
6.190;-1.930878;0.623325
6.200;-1.908768;0.619594
6.210;-1.880521;0.617328
6.220;-1.846182;0.616084
6.230;-1.807120;0.615427
6.240;-1.765748;0.615089
6.250;-1.724930;0.615050
6.260;-1.687274;0.615564
6.270;-1.654571;0.617132
6.280;-1.627519;0.620424
6.290;-1.605780;0.626139
6.300;-1.588278;0.634783
6.310;-1.573605;0.646444
6.320;-1.560381;0.660631
6.330;-1.547516;0.676317
6.340;-1.534321;0.692202
6.350;-1.520521;0.707154
6.360;-1.506186;0.720654
6.370;-1.491668;0.733095
6.380;-1.477529;0.745785
6.390;-1.464462;0.760667
6.400;-1.453164;0.779833
6.410;-1.444165;0.804945
6.420;-1.437680;0.836704
6.430;-1.433521;0.874543
6.440;-1.431133;0.916644
6.450;-1.429747;0.960320
6.460;-1.428612;1.002627
6.470;-1.427223;1.041025
6.480;-1.425470;1.073927
6.490;-1.423637;1.100976
6.500;-1.422263;1.122940
6.510;-1.421931;1.141237
6.520;-1.423054;1.157227
6.530;-1.425739;1.171620
6.540;-1.429781;1.184254
6.550;-1.434788;1.194309
6.560;-1.440370;1.200787
6.570;-1.446313;1.203001
6.580;-1.452670;1.200874
6.590;-1.459694;1.194985
6.600;-1.467661;1.186378
6.610;-1.476630;1.176224
6.620;-1.486293;1.165511
6.630;-1.495959;1.154866
6.640;-1.504710;1.144558
6.650;-1.511630;1.134612
6.660;-1.515992;1.124993
6.670;-1.517305;1.115736
6.680;-1.515224;1.106978
6.690;-1.509428;1.098842
6.700;-1.499572;1.091274
6.710;-1.485370;1.083966
6.720;-1.466756;1.076445
6.730;-1.444031;1.068306
6.740;-1.417898;1.059446
6.750;-1.389339;1.050134
6.760;-1.359372;1.040886
6.770;-1.328769;1.032222
6.780;-1.297846;1.024459
6.790;-1.266431;1.017646
6.800;-1.234041;1.011613
6.810;-1.200186;1.006080
6.820;-1.164677;1.000774
6.830;-1.127760;0.995535
6.840;-1.090013;0.990395
6.850;-1.052064;0.985572
6.860;-1.014285;0.981365
6.870;-0.976661;0.977979
6.880;-0.938882;0.975380
6.890;-0.900586;0.973245
6.900;-0.861585;0.971016
6.910;-0.821998;0.968011
6.920;-0.782216;0.963544
6.930;-0.742761;0.956985
6.940;-0.704095;0.947799
6.950;-0.666488;0.935571
6.960;-0.630010;0.920071
6.970;-0.594632;0.901344
6.980;-0.560365;0.879766
6.990;-0.527366;0.856015
7.000;-0.496011;0.830924
7.010;-0.466924;0.805264
7.020;-0.440941;0.779549
7.030;-0.418974;0.753970
7.040;-0.401810;0.728487
7.050;-0.389883;0.702991
7.060;-0.383108;0.677415
7.070;-0.380838;0.651770
7.080;-0.381972;0.626093
7.090;-0.385188;0.600427
7.100;-0.389250;0.574846
7.110;-0.393249;0.549547
7.120;-0.396729;0.524951
7.130;-0.399659;0.501718
7.140;-0.402265;0.480656
7.150;-0.404817;0.462558
7.160;-0.407432;0.448038
7.170;-0.409981;0.437425
7.180;-0.412125;0.430744
7.190;-0.413432;0.427781
7.200;-0.413499;0.428171
7.210;-0.412005;0.431464
7.220;-0.408696;0.437133
7.230;-0.403379;0.444508
7.240;-0.395987;0.452718
7.250;-0.386699;0.460685
7.260;-0.376022;0.467252
7.270;-0.364737;0.471433
7.280;-0.353737;0.472682
7.290;-0.343845;0.471057
7.300;-0.335725;0.467176
7.310;-0.329879;0.461977
7.320;-0.326696;0.456397
7.330;-0.326467;0.451089
7.340;-0.329337;0.446273
7.350;-0.335238;0.441751
7.360;-0.343865;0.437047
7.370;-0.354739;0.431602
7.380;-0.367366;0.424961
7.390;-0.381407;0.416877
7.400;-0.396792;0.407302
7.410;-0.413708;0.396284
7.420;-0.432487;0.383871
7.430;-0.453473;0.370081
7.440;-0.476942;0.354969
7.450;-0.503117;0.338722
7.460;-0.532250;0.321689
7.470;-0.564681;0.304325
7.480;-0.600807;0.287041
7.490;-0.640947;0.270069
7.500;-0.685176;0.253402
7.510;-0.733226;0.236898
7.520;-0.784507;0.220487
7.530;-0.838237;0.204380
7.540;-0.893593;0.189116
7.550;-0.949780;0.175401
7.560;-1.005988;0.163802
7.570;-1.061299;0.154491
7.580;-1.114635;0.147211
7.590;-1.164793;0.141485
7.600;-1.210577;0.136912
7.610;-1.250985;0.133373
7.620;-1.285409;0.131032
7.630;-1.313753;0.130202
7.640;-1.336423;0.131147
7.650;-1.354159;0.133923
7.660;-1.367789;0.138266
7.670;-1.378005;0.143549
7.680;-1.385285;0.148809
7.690;-1.389949;0.152885
7.700;-1.392317;0.154674
7.710;-1.392859;0.153481
7.720;-1.392252;0.149343
7.730;-1.391317;0.143159
7.740;-1.390872;0.136508
7.750;-1.391584;0.131187
7.760;-1.393921;0.128637
7.770;-1.398212;0.129516
7.780;-1.404784;0.133590
7.790;-1.414088;0.139997
7.800;-1.426735;0.147735
7.810;-1.443391;0.156152
7.820;-1.464571;0.165212
7.830;-1.490392;0.175429
7.840;-1.520400;0.187527
7.850;-1.553570;0.202023
7.860;-1.588483;0.218929
7.870;-1.623597;0.237669
