Time[s];COPx[cm];COPy[cm]
0.010;1.839973;2.077899
0.020;1.838284;2.055731
0.030;1.836550;2.033614
0.040;1.834961;2.011275
0.050;1.834158;1.988269
0.060;1.835171;1.964095
0.070;1.839196;1.938393
0.080;1.847278;1.911088
0.090;1.860052;1.882435
0.100;1.877632;1.852947
0.110;1.899665;1.823272
0.120;1.925484;1.794059
0.130;1.954261;1.765869
0.140;1.985109;1.739142
0.150;2.017119;1.714218
0.160;2.049385;1.691374
0.170;2.081040;1.670863
0.180;2.111340;1.652928
0.190;2.139756;1.637807
0.200;2.166036;1.625698
0.210;2.190191;1.616739
0.220;2.212382;1.611002
0.230;2.232734;1.608527
0.240;2.251157;1.609370
0.250;2.267269;1.613624
0.260;2.280473;1.621407
0.270;2.290163;1.632801
0.280;2.295991;1.647750
0.290;2.298090;1.665949
0.300;2.297120;1.686747
0.310;2.294134;1.709142
0.320;2.290296;1.731899
0.330;2.286593;1.753743
0.340;2.283610;1.773571
0.350;2.281424;1.790632
0.360;2.279597;1.804635
0.370;2.277298;1.815746
0.380;2.273525;1.824457
0.390;2.267425;1.831373
0.400;2.258599;1.836989
0.410;2.247276;1.841562
0.420;2.234289;1.845104
0.430;2.220843;1.847481
0.440;2.208167;1.848555
0.450;2.197185;1.848315
0.460;2.188309;1.846929
0.470;2.181443;1.844693
0.480;2.176163;1.841903
0.490;2.171976;1.838701
0.500;2.168522;1.835008
0.510;2.165628;1.830564
0.520;2.163227;1.825050
0.530;2.161213;1.818208
0.540;2.159339;1.809889
0.550;2.157213;1.800044
0.560;2.154403;1.788669
0.570;2.150595;1.775757
0.580;2.145720;1.761298
0.590;2.139988;1.745321
0.600;2.133819;1.727994
0.610;2.127702;1.709709
0.620;2.122047;1.691098
0.630;2.117094;1.672924
0.640;2.112901;1.655865
0.650;2.109415;1.640324
0.660;2.106558;1.626343
0.670;2.104278;1.613682
0.680;2.102515;1.602007
0.690;2.101143;1.591096
0.700;2.099934;1.580972
0.710;2.098578;1.571909
0.720;2.096767;1.564325
0.730;2.094275;1.558599
0.740;2.091017;1.554886
0.750;2.087078;1.553030
0.760;2.082699;1.552619
0.770;2.078218;1.553151
0.780;2.073969;1.554213
0.790;2.070185;1.555572
0.800;2.066958;1.557141
0.810;2.064281;1.558847
0.820;2.062147;1.560510
0.830;2.060623;1.561830
0.840;2.059854;1.562478
0.850;2.059981;1.562232
0.860;2.061039;1.561068
0.870;2.062912;1.559184
0.880;2.065399;1.556995
0.890;2.068350;1.555105
0.900;2.071817;1.554245
0.910;2.076108;1.555113
0.920;2.081711;1.558164
0.930;2.089120;1.563402
0.940;2.098669;1.570321
0.950;2.110458;1.578032
0.960;2.124405;1.585527
0.970;2.140358;1.591974
0.980;2.158210;1.596924
0.990;2.177935;1.600387
1.000;2.199552;1.602765
1.010;2.223053;1.604688
1.020;2.248318;1.606802
1.030;2.275076;1.609571
1.040;2.302901;1.613159
1.050;2.331264;1.617432
1.060;2.359605;1.622080
1.070;2.387395;1.626788
1.080;2.414160;1.631383
1.090;2.439480;1.635894
1.100;2.462934;1.640520
1.110;2.484034;1.645527
1.120;2.502176;1.651142
1.130;2.516659;1.657489
1.140;2.526791;1.664557
1.150;2.532065;1.672212
1.160;2.532318;1.680208
1.170;2.527796;1.688225
1.180;2.519075;1.695924
1.190;2.506870;1.702989
1.200;2.491837;1.709166
1.210;2.474456;1.714271
1.220;2.455042;1.718183
1.230;2.433853;1.720799
1.240;2.411218;1.721989
1.250;2.387600;1.721586
1.260;2.363549;1.719446
1.270;2.339597;1.715559
1.280;2.316134;1.710135
1.290;2.293356;1.703624
1.300;2.271279;1.696652
1.310;2.249812;1.689885
1.320;2.228827;1.683872
1.330;2.208225;1.678893
1.340;2.187998;1.674885
1.350;2.168274;1.671438
1.360;2.149347;1.667901
1.370;2.131659;1.663545
1.380;2.115738;1.657776
1.390;2.102099;1.650331
1.400;2.091149;1.641391
1.410;2.083125;1.631543
1.420;2.078075;1.621604
1.430;2.075871;1.612363
1.440;2.076240;1.604371
1.450;2.078805;1.597846
1.460;2.083143;1.592700
1.470;2.088849;1.588629
1.480;2.095619;1.585210
1.490;2.103334;1.581954
1.500;2.112123;1.578362
1.510;2.122421;1.573998
1.520;2.134992;1.568585
1.530;2.150875;1.562067
1.540;2.171215;1.554622
1.550;2.196989;1.546589
1.560;2.228735;1.538360
1.570;2.266386;1.530281
1.580;2.309312;1.522601
1.590;2.356513;1.515489
1.600;2.406892;1.509079
1.610;2.459469;1.503508
1.620;2.513480;1.498886
1.630;2.568346;1.495214
1.640;2.623546;1.492308
1.650;2.678440;1.489791
1.660;2.732115;1.487161
1.670;2.783304;1.483924
1.680;2.830445;1.479717
1.690;2.871887;1.474408
1.700;2.906147;1.468130
1.710;2.932141;1.461262
1.720;2.949272;1.454358
1.730;2.957378;1.448060
1.740;2.956582;1.442956
1.750;2.947128;1.439398
1.760;2.929310;1.437319
1.770;2.903499;1.436164
1.780;2.870234;1.434984
1.790;2.830270;1.432718
1.800;2.784470;1.428538
1.810;2.733530;1.422106
1.820;2.677621;1.413622
1.830;2.616086;1.403630
1.840;2.547328;1.392674
1.850;2.468944;1.380940
1.860;2.378115;1.368019
1.870;2.272200;1.352869
1.880;2.149447;1.334034
1.890;2.009696;1.310087
1.900;1.854879;1.280231
1.910;1.689080;1.244868
1.920;1.518004;1.205880
1.930;1.347940;1.166393
1.940;1.184543;1.130022
1.950;1.031927;1.099879
1.960;0.892365;1.077732
1.970;0.766613;1.063632
1.980;0.654549;1.056046
1.990;0.555799;1.052386
2.000;0.470105;1.049678
2.010;0.397401;1.045155
2.020;0.337656;1.036634
2.030;0.290621;1.022627
2.040;0.255586;1.002249
2.050;0.231249;0.975011
2.060;0.215731;0.940648
2.070;0.206746;0.899077
2.080;0.201869;0.850529
2.090;0.198849;0.795793
2.100;0.195883;0.736445
2.110;0.191827;0.674893
2.120;0.186287;0.614141
2.130;0.179583;0.557276
2.140;0.172576;0.506833
2.150;0.166381;0.464275
2.160;0.162051;0.429781
2.170;0.160326;0.402404
2.180;0.161511;0.380476
2.190;0.165473;0.362074
2.200;0.171728;0.345383
2.210;0.179569;0.328898
2.220;0.188233;0.311478
2.230;0.197067;0.292317
2.240;0.205678;0.270897
2.250;0.214015;0.246960
2.260;0.222302;0.220494
2.270;0.230859;0.191696
2.280;0.239851;0.160900
2.290;0.249085;0.128484
2.300;0.257954;0.094801
2.310;0.265532;0.060146
2.320;0.270762;0.024762
2.330;0.272654;-0.011129
2.340;0.270408;-0.047280
2.350;0.263412;-0.083347
2.360;0.251163;-0.118852
2.370;0.233140;-0.153195
2.380;0.208744;-0.185738
2.390;0.177356;-0.215901
2.400;0.138549;-0.243213
2.410;0.092359;-0.267272
2.420;0.039514;-0.287647
2.430;-0.018521;-0.303772
2.440;-0.079717;-0.314923
2.450;-0.141820;-0.320306
2.460;-0.202709;-0.319241
2.470;-0.260683;-0.311368
2.480;-0.314619;-0.296774
2.490;-0.363980;-0.275992
2.500;-0.408701;-0.249876
2.510;-0.449006;-0.219425
2.520;-0.485208;-0.185638
2.530;-0.517596;-0.149437
2.540;-0.546435;-0.111645
2.550;-0.572051;-0.072968
2.560;-0.594936;-0.033923
2.570;-0.615782;0.005247
2.580;-0.635434;0.044626
2.590;-0.654781;0.084572
2.600;-0.674602;0.125571
2.610;-0.695431;0.168041
2.620;-0.717479;0.212155
2.630;-0.740651;0.257717
2.640;-0.764650;0.304171
2.650;-0.789118;0.350757
2.660;-0.813751;0.396741
2.670;-0.838334;0.441608
2.680;-0.862696;0.485133
2.690;-0.886617;0.527290
2.700;-0.909712;0.568102
2.710;-0.931351;0.607493
2.720;-0.950588;0.645219
2.730;-0.966150;0.680882
2.740;-0.976511;0.713990
2.750;-0.980085;0.744024
2.760;-0.975508;0.770507
2.770;-0.961883;0.793055
2.780;-0.938906;0.811451
2.790;-0.906805;0.825712
2.800;-0.866150;0.836143
2.810;-0.817620;0.843334
2.820;-0.761831;0.848083
2.830;-0.699289;0.851246
2.840;-0.630465;0.853585
2.850;-0.555911;0.855673
2.860;-0.476368;0.857908
2.870;-0.392833;0.860621
2.880;-0.306562;0.864199
2.890;-0.219006;0.869140
2.900;-0.131684;0.875984
2.910;-0.046022;0.885152
2.920;0.036763;0.896774
2.930;0.115694;0.910625
2.940;0.189972;0.926200
2.950;0.258904;0.942906
2.960;0.321909;0.960278
2.970;0.378598;0.978129
2.980;0.428896;0.996580
2.990;0.473140;1.015999
3.000;0.512076;1.036887
3.010;0.546756;1.059742
3.020;0.578361;1.084962
3.030;0.608008;1.112803
3.040;0.636605;1.143353
3.050;0.664797;1.176514
3.060;0.693004;1.211974
3.070;0.721522;1.249213
3.080;0.750626;1.287593
3.090;0.780615;1.326523
3.100;0.811767;1.365635
3.110;0.844224;1.404891
3.120;0.877893;1.444538
3.130;0.912415;1.484956
3.140;0.947233;1.526468
3.150;0.981694;1.569248
3.160;1.015140;1.613348
3.170;1.046960;1.658805
3.180;1.076630;1.705750
3.190;1.103756;1.754458
3.200;1.128118;1.805347
3.210;1.149700;1.858935
3.220;1.168677;1.915727
3.230;1.185397;1.976061
3.240;1.200361;2.039949
3.250;1.214218;2.107022
3.260;1.227734;2.176611
3.270;1.241726;2.247956
3.280;1.256945;2.320397
3.290;1.273953;2.393473
3.300;1.293009;2.466890
3.310;1.314026;2.540421
3.320;1.336630;2.613805
3.330;1.360322;2.686725
3.340;1.384691;2.758830
3.350;1.409570;2.829778
3.360;1.435061;2.899257
3.370;1.461399;2.966984
3.380;1.488756;3.032697
3.390;1.517054;3.096139
3.400;1.545902;3.157080
3.410;1.574669;3.215378
3.420;1.602664;3.271056
3.430;1.629350;3.324326
3.440;1.654485;3.375541
3.450;1.678138;3.425033
3.460;1.700555;3.472911
3.470;1.721958;3.518895
3.480;1.742365;3.562299
3.490;1.761529;3.602224
3.500;1.779022;3.637885
3.510;1.794431;3.668952
3.520;1.807589;3.695716
3.530;1.818721;3.719014
3.540;1.828428;3.739918
3.550;1.837515;3.759336
3.560;1.846743;3.777704
3.570;1.856618;3.794860
3.580;1.867303;3.810137
3.590;1.878631;3.822589
3.600;1.890191;3.831300
3.610;1.901445;3.835686
3.620;1.911815;3.835720
3.630;1.920742;3.831958
3.640;1.927698;3.825333
3.650;1.932184;3.816768
3.660;1.933730;3.806778
3.670;1.931925;3.795265
3.680;1.926469;3.781601
3.690;1.917220;3.764938
3.700;1.904195;3.744606
3.710;1.887528;3.720403
3.720;1.867431;3.692691
3.730;1.844174;3.662286
3.740;1.818097;3.630202
3.750;1.789618;3.597335
3.760;1.759193;3.564195
3.770;1.727224;3.530783
3.780;1.693940;3.496631
3.790;1.659307;3.460982
3.800;1.623016;3.423021
3.810;1.584564;3.382103
3.820;1.543422;3.337955
3.830;1.499236;3.290797
3.840;1.451977;3.241394
3.850;1.401996;3.190977
3.860;1.349957;3.141034
3.870;1.296695;3.093008
3.880;1.243040;3.047993
3.890;1.189655;3.006568
3.900;1.136950;2.968797
3.910;1.085075;2.934342
3.920;1.034001;2.902575
3.930;0.983618;2.872654
3.940;0.933812;2.843553
3.950;0.884463;2.814153
3.960;0.835408;2.783396
3.970;0.786403;2.750495
3.980;0.737119;2.715103
3.990;0.687175;2.677377
4.000;0.636199;2.637905
4.010;0.583911;2.597551
4.020;0.530212;2.557275
4.030;0.475218;2.517977
4.040;0.419228;2.480388
4.050;0.362610;2.445041
4.060;0.305666;2.412314
4.070;0.248539;2.382519
4.080;0.191223;2.355949
4.090;0.133677;2.332838
4.100;0.075951;2.313261
4.110;0.018259;2.297050
4.120;-0.039059;2.283776
4.130;-0.095693;2.272820
4.140;-0.151581;2.263495
4.150;-0.207128;2.255184
4.160;-0.263308;2.247430
4.170;-0.321555;2.239960
4.180;-0.383453;2.232620
4.190;-0.450277;2.225253
4.200;-0.522569;2.217609
4.210;-0.599852;2.209365
4.220;-0.680620;2.200269
4.230;-0.762588;2.190322
4.240;-0.843139;2.179884
4.250;-0.919813;2.169610
4.260;-0.990712;2.160215
4.270;-1.054703;2.152175
4.280;-1.111396;2.145476
4.290;-1.160915;2.139520
4.300;-1.203597;2.133227
4.310;-1.239738;2.125323
4.320;-1.269513;2.114701
4.330;-1.293029;2.100761
4.340;-1.310454;2.083576
4.350;-1.322101;2.063829
4.360;-1.328447;2.042540
4.370;-1.330092;2.020725
4.380;-1.327715;1.999145
4.390;-1.322060;1.978257
4.400;-1.313921;1.958329
4.410;-1.304100;1.939613
4.420;-1.293320;1.922454
4.430;-1.282136;1.907281
4.440;-1.270900;1.894493
4.450;-1.259791;1.884315
4.460;-1.248900;1.876676
4.470;-1.238307;1.871209
4.480;-1.228145;1.867347
4.490;-1.218637;1.864502
4.500;-1.210136;1.862233
4.510;-1.203138;1.860359
4.520;-1.198242;1.858985
4.530;-1.196048;1.858442
4.540;-1.196975;1.859115
4.550;-1.201111;1.861208
4.560;-1.208167;1.864562
4.570;-1.217564;1.868662
4.580;-1.228631;1.872870
4.590;-1.240814;1.876783
4.600;-1.253879;1.880529
4.610;-1.268056;1.884827
4.620;-1.284109;1.890765
4.630;-1.303326;1.899391
4.640;-1.327383;1.911281
4.650;-1.358125;1.926316
4.660;-1.397247;1.943711
4.670;-1.445935;1.962265
4.680;-1.504497;1.980661
4.690;-1.572142;1.997709
4.700;-1.646970;2.012506
4.710;-1.726218;2.024502
4.720;-1.806680;2.033516
4.730;-1.885160;2.039729
4.740;-1.958843;2.043675
4.750;-2.025489;2.046212
4.760;-2.083449;2.048442
4.770;-2.131570;2.051542
4.780;-2.169109;2.056541
4.790;-2.195739;2.064106
4.800;-2.211634;2.074414
4.810;-2.217540;2.087127
4.820;-2.214735;2.101483
4.830;-2.204834;2.116463
4.840;-2.189515;2.131039
4.850;-2.170269;2.144430
4.860;-2.148279;2.156289
4.870;-2.124450;2.166743
4.880;-2.099543;2.176231
4.890;-2.074294;2.185208
4.900;-2.049455;2.193834
4.910;-2.025733;2.201811
4.920;-2.003680;2.208460
4.930;-1.983599;2.213007
4.940;-1.965510;2.214949
4.950;-1.949150;2.214304
4.960;-1.934017;2.211620
4.970;-1.919460;2.207741
4.980;-1.904820;2.203448
4.990;-1.889625;2.199169
5.000;-1.873755;2.194891
5.010;-1.857545;2.190289
5.020;-1.841729;2.184944
5.030;-1.827257;2.178512
5.040;-1.815020;2.170793
5.050;-1.805587;2.161729
5.060;-1.799077;2.151385
5.070;-1.795172;2.139919
5.080;-1.793286;2.127549
5.090;-1.792792;2.114478
5.100;-1.793246;2.100821
5.110;-1.794517;2.086544
5.120;-1.796787;2.071460
5.130;-1.800453;2.055301
5.140;-1.805980;2.037846
5.150;-1.813770;2.019036
5.160;-1.824090;1.999012
5.170;-1.837055;1.978075
5.180;-1.852640;1.956619
5.190;-1.870677;1.935071
5.200;-1.890806;1.913847
5.210;-1.912364;1.893338
5.220;-1.934305;1.873910
5.230;-1.955205;1.855906
5.240;-1.973419;1.839623
5.250;-1.987325;1.825249
5.260;-1.995575;1.812795
5.270;-1.997224;1.802057
5.280;-1.991690;1.792623
5.290;-1.978566;1.783918
5.300;-1.957390;1.775268
5.310;-1.927512;1.765998
5.320;-1.888124;1.755533
5.330;-1.838462;1.743489
5.340;-1.778059;1.729733
5.350;-1.706948;1.714424
5.360;-1.625675;1.698011
5.370;-1.535134;1.681188
5.380;-1.436304;1.664806
5.390;-1.330046;1.649766
5.400;-1.217069;1.636933
5.410;-1.098073;1.627086
5.420;-0.973992;1.620860
5.430;-0.846224;1.618643
5.440;-0.716721;1.620424
5.450;-0.587871;1.625670
5.460;-0.462160;1.633351
5.470;-0.341771;1.642171
5.480;-0.228267;1.650904
5.490;-0.122472;1.658680
5.500;-0.024571;1.665087
5.510;0.065636;1.670080
5.520;0.148430;1.673825
5.530;0.223888;1.676561
5.540;0.291753;1.678552
5.550;0.351524;1.680070
5.560;0.402748;1.681387
5.570;0.445344;1.682734
5.580;0.479790;1.684256
5.590;0.507045;1.685962
5.600;0.528292;1.687671
5.610;0.544639;1.688989
5.620;0.556903;1.689338
5.630;0.565508;1.688099
5.640;0.570496;1.684813
5.650;0.571637;1.679365
5.660;0.568593;1.672041
5.670;0.561113;1.663430
5.680;0.549176;1.654209
5.690;0.533056;1.644899
5.700;0.513290;1.635720
5.710;0.490561;1.626570
5.720;0.465546;1.617133
5.730;0.438784;1.607053
5.740;0.410610;1.596085
5.750;0.381211;1.584141
5.760;0.350808;1.571210
5.770;0.319865;1.557241
5.780;0.289222;1.542077
5.790;0.260035;1.525489
5.800;0.233539;1.507266
5.810;0.210732;1.487288
5.820;0.192113;1.465536
5.830;0.177552;1.442050
5.840;0.166333;1.416880
5.850;0.157348;1.390040
5.860;0.149397;1.361491
5.870;0.141523;1.331152
5.880;0.133252;1.298952
5.890;0.124686;1.264890
5.900;0.116406;1.229059
5.910;0.109253;1.191640
5.920;0.104073;1.152870
5.930;0.101500;1.112993
5.940;0.101865;1.072207
5.950;0.105227;1.030612
5.960;0.111496;0.988191
5.970;0.120572;0.944849
5.980;0.132399;0.900487
5.990;0.146924;0.855070
6.000;0.163940;0.808664
6.010;0.182920;0.761435
6.020;0.202924;0.713632
6.030;0.222673;0.665579
6.040;0.240760;0.617683
6.050;0.255927;0.570417
6.060;0.267259;0.524312
6.070;0.274244;0.479920
6.080;0.276688;0.437778
6.090;0.274556;0.398332
6.100;0.267824;0.361819
6.110;0.256373;0.328127
6.120;0.239946;0.296731
6.130;0.218151;0.266804
6.140;0.190542;0.237507
6.150;0.156777;0.208320
6.160;0.116810;0.179240
6.170;0.071056;0.150728
6.180;0.020422;0.123471
6.190;-0.033808;0.098121
6.200;-0.090205;0.075167
6.210;-0.147458;0.054992
6.220;-0.204563;0.038036
6.230;-0.260901;0.024893
6.240;-0.316199;0.016241
6.250;-0.370387;0.012599
6.260;-0.423402;0.014040
6.270;-0.474996;0.019999
6.280;-0.524621;0.029277
6.290;-0.571448;0.040223
6.300;-0.614520;0.051021
6.310;-0.652976;0.059962
6.320;-0.686267;0.065677
6.330;-0.714281;0.067305
6.340;-0.737362;0.064568
6.350;-0.756215;0.057722
6.360;-0.771759;0.047363
6.370;-0.784960;0.034160
6.380;-0.796684;0.018633
6.390;-0.807635;0.001077
6.400;-0.818350;-0.018329
6.410;-0.829255;-0.039326
6.420;-0.840721;-0.061390
6.430;-0.853075;-0.083685
6.440;-0.866579;-0.105203
6.450;-0.881383;-0.125086
6.460;-0.897526;-0.143034
6.470;-0.914994;-0.159634
6.480;-0.933820;-0.176380
6.490;-0.954215;-0.195290
6.500;-0.976640;-0.218192
6.510;-1.001806;-0.245968
6.520;-1.030555;-0.278070
6.530;-1.063646;-0.312506
6.540;-1.101493;-0.346298
6.550;-1.143941;-0.376236
6.560;-1.190131;-0.399696
6.570;-1.238526;-0.415282
6.580;-1.287103;-0.423137
6.590;-1.333683;-0.424844
6.600;-1.376332;-0.422904
6.610;-1.413723;-0.419955
6.620;-1.445353;-0.417956
6.630;-1.471585;-0.417659
6.640;-1.493514;-0.418535
6.650;-1.512733;-0.419142
6.660;-1.531043;-0.417731
6.670;-1.550168;-0.412840
6.680;-1.571484;-0.403706
6.690;-1.595847;-0.390375
6.700;-1.623522;-0.373512
6.710;-1.654242;-0.353999
6.720;-1.687364;-0.332510
6.730;-1.722095;-0.309256
6.740;-1.757701;-0.283980
6.750;-1.793645;-0.256176
6.760;-1.829602;-0.225347
6.770;-1.865393;-0.191213
6.780;-1.900886;-0.153805
6.790;-1.935948;-0.113479
6.800;-1.970487;-0.070835
6.810;-2.004553;-0.026548
6.820;-2.038437;0.018838
6.830;-2.072711;0.065041
6.840;-2.108182;0.112044
6.850;-2.145788;0.159972
6.860;-2.186457;0.208938
6.870;-2.230946;0.258950
6.880;-2.279671;0.309918
6.890;-2.332565;0.361717
6.900;-2.389000;0.414243
6.910;-2.447816;0.467395
6.920;-2.507500;0.520966
6.930;-2.566464;0.574526
6.940;-2.623340;0.627348
6.950;-2.677185;0.678472
6.960;-2.727542;0.726884
6.970;-2.774397;0.771760
6.980;-2.818098;0.812653
6.990;-2.859281;0.849565
7.000;-2.898818;0.882898
7.010;-2.937755;0.913322
7.020;-2.977225;0.941591
7.030;-3.018321;0.968342
7.040;-3.061964;0.993909
7.050;-3.108763;1.018232
7.060;-3.158891;1.040886
7.070;-3.212006;1.061210
7.080;-3.267254;1.078459
7.090;-3.323375;1.091950
7.100;-3.378902;1.101150
7.110;-3.432388;1.105700
7.120;-3.482596;1.105398
7.130;-3.528590;1.100192
7.140;-3.569735;1.090221
7.150;-3.605672;1.075898
7.160;-3.636329;1.057969
7.170;-3.661950;1.037474
7.180;-3.683088;1.015577
7.190;-3.700497;0.993338
7.200;-3.715000;0.971495
7.210;-3.727380;0.950342
7.220;-3.738366;0.929736
7.230;-3.748656;0.909219
7.240;-3.758888;0.888187
7.250;-3.769530;0.866043
7.260;-3.780733;0.842281
7.270;-3.792274;0.816513
7.280;-3.803632;0.788450
7.290;-3.814167;0.757915
7.300;-3.823286;0.724884
7.310;-3.830516;0.689557
7.320;-3.835503;0.652390
7.330;-3.837998;0.614058
7.340;-3.837896;0.575364
7.350;-3.835300;0.537113
7.360;-3.830592;0.499978
7.370;-3.824414;0.464392
7.380;-3.817530;0.430499
7.390;-3.810571;0.398183
7.400;-3.803714;0.367198
7.410;-3.796446;0.337317
7.420;-3.787517;0.308430
7.430;-3.775167;0.280507
7.440;-3.757582;0.253466
7.450;-3.733441;0.227006
7.460;-3.702364;0.200560
7.470;-3.665119;0.173412
7.480;-3.623534;0.144940
7.490;-3.580143;0.114836
7.500;-3.537687;0.083174
7.510;-3.498608;0.050333
7.520;-3.464683;0.016882
7.530;-3.436903;-0.016482
7.540;-3.415599;-0.048919
7.550;-3.400739;-0.079438
7.560;-3.392265;-0.106996
7.570;-3.390307;-0.130716
7.580;-3.395256;-0.150166
7.590;-3.407688;-0.165578
7.600;-3.428253;-0.177904
7.610;-3.457519;-0.188629
7.620;-3.495840;-0.199388
7.630;-3.543239;-0.211549
7.640;-3.599350;-0.225971
7.650;-3.663381;-0.243041
7.660;-3.734064;-0.262920
7.670;-3.809581;-0.285799
7.680;-3.887522;-0.311959
7.690;-3.964973;-0.341554
7.700;-4.038770;-0.374232
7.710;-4.105879;-0.408813
7.720;-4.163788;-0.443263
7.730;-4.210767;-0.475090
7.740;-4.245969;-0.502045
7.750;-4.269386;-0.522866
7.760;-4.281727;-0.537743
7.770;-4.284209;-0.548302
7.780;-4.278259;-0.557122
7.790;-4.265168;-0.566978
7.800;-4.245778;-0.580091
7.810;-4.220335;-0.597616
7.820;-4.188598;-0.619477
7.830;-4.150163;-0.644519
7.840;-4.104905;-0.670849
7.850;-4.053304;-0.696238
7.860;-3.996438;-0.718499
7.870;-3.935532;-0.735831
7.880;-3.871182;-0.747128
7.890;-3.802535;-0.752228
7.900;-3.726867;-0.751997
7.910;-3.639857;-0.748112
7.920;-3.536674;-0.742571
7.930;-3.413593;-0.737101
7.940;-3.269595;-0.732731
7.950;-3.107280;-0.729712
7.960;-2.932652;-0.727758
7.970;-2.753773;-0.726440
7.980;-2.578722;-0.725501
7.990;-2.413566;-0.724953
8.000;-2.260960;-0.724953
8.010;-2.119820;-0.725567
8.020;-1.986157;-0.726559
8.030;-1.854818;-0.727304
8.040;-1.721564;-0.726863
8.050;-1.584756;-0.724198
8.060;-1.446040;-0.718438
8.070;-1.309884;-0.709109
8.080;-1.182236;-0.696252
8.090;-1.068946;-0.680397
8.100;-0.974560;-0.662405
8.110;-0.901828;-0.643207
