Time[s];COPx[cm];COPy[cm]
0.010;-0.944221;0.416719
0.020;-0.945974;0.433712
0.030;-0.947242;0.451051
0.040;-0.947599;0.468836
0.050;-0.946722;0.486826
0.060;-0.944426;0.504445
0.070;-0.940711;0.520944
0.080;-0.935823;0.535641
0.090;-0.930284;0.548154
0.100;-0.924828;0.558496
0.110;-0.920234;0.567015
0.120;-0.917115;0.574219
0.130;-0.915738;0.580630
0.140;-0.915959;0.586687
0.150;-0.917306;0.592698
0.160;-0.919135;0.598784
0.170;-0.920818;0.604814
0.180;-0.921874;0.610408
0.190;-0.922041;0.615021
0.200;-0.921251;0.618111
0.210;-0.919556;0.619321
0.220;-0.917024;0.618585
0.230;-0.913667;0.616123
0.240;-0.909427;0.612314
0.250;-0.904219;0.607541
0.260;-0.898016;0.602054
0.270;-0.890911;0.595886
0.280;-0.883137;0.588824
0.290;-0.875035;0.580443
0.300;-0.867015;0.570229
0.310;-0.859510;0.557748
0.320;-0.852938;0.542817
0.330;-0.847645;0.525600
0.340;-0.843880;0.506586
0.350;-0.841773;0.486469
0.360;-0.841338;0.465960
0.370;-0.842437;0.445606
0.380;-0.844747;0.425656
0.390;-0.847775;0.406070
0.400;-0.850961;0.386639
0.410;-0.853861;0.367196
0.420;-0.856310;0.347783
0.430;-0.858489;0.328717
0.440;-0.860811;0.310531
0.450;-0.863696;0.293845
0.460;-0.867327;0.279238
0.470;-0.871524;0.267146
0.480;-0.875787;0.257779
0.490;-0.879491;0.251052
0.500;-0.882128;0.246580
0.510;-0.883476;0.243781
0.520;-0.883622;0.242064
0.530;-0.882854;0.241037
0.540;-0.881511;0.240604
0.550;-0.879882;0.240917
0.560;-0.878177;0.242232
0.570;-0.876549;0.244769
0.580;-0.875143;0.248644
0.590;-0.874102;0.253881
0.600;-0.873548;0.260441
0.610;-0.873518;0.268250
0.620;-0.873894;0.277211
0.630;-0.874367;0.287198
0.640;-0.874453;0.298064
0.650;-0.873606;0.309659
0.660;-0.871365;0.321871
0.670;-0.867489;0.334668
0.680;-0.861997;0.348114
0.690;-0.855110;0.362338
0.700;-0.847095;0.377445
0.710;-0.838109;0.393409
0.720;-0.828097;0.409999
0.730;-0.816821;0.426771
0.740;-0.804007;0.443170
0.750;-0.789557;0.458655
0.760;-0.773697;0.472813
0.770;-0.756995;0.485404
0.780;-0.740240;0.496325
0.790;-0.724257;0.505530
0.800;-0.709781;0.512960
0.810;-0.697401;0.518541
0.820;-0.687553;0.522248
0.830;-0.680489;0.524138
0.840;-0.676234;0.524321
0.850;-0.674552;0.522860
0.860;-0.674981;0.519714
0.870;-0.676939;0.514797
0.880;-0.679854;0.508154
0.890;-0.683280;0.500119
0.900;-0.686920;0.491346
0.910;-0.690598;0.482705
0.920;-0.694181;0.475070
0.930;-0.697531;0.469105
0.940;-0.700507;0.465086
0.950;-0.703012;0.462821
0.960;-0.705063;0.461704
0.970;-0.706846;0.460896
0.980;-0.708720;0.459596
0.990;-0.711145;0.457291
1.000;-0.714566;0.453868
1.010;-0.719262;0.449556
1.020;-0.725245;0.444726
1.030;-0.732203;0.439661
1.040;-0.739563;0.434391
1.050;-0.746624;0.428641
1.060;-0.752747;0.421925
1.070;-0.757492;0.413733
1.080;-0.760690;0.403730
1.090;-0.762444;0.391861
1.100;-0.763087;0.378353
1.110;-0.763110;0.363615
1.120;-0.763062;0.348136
1.130;-0.763430;0.332407
1.140;-0.764547;0.316898
1.150;-0.766539;0.302050
1.160;-0.769360;0.288254
1.170;-0.772888;0.275781
1.180;-0.777042;0.264692
1.190;-0.781853;0.254811
1.200;-0.787429;0.245806
1.210;-0.793854;0.237382
1.220;-0.801067;0.229481
1.230;-0.808802;0.222392
1.240;-0.816611;0.216702
1.250;-0.823933;0.213084
1.260;-0.830197;0.212022
1.270;-0.834924;0.213569
1.280;-0.837810;0.217262
1.290;-0.838777;0.222233
1.300;-0.837992;0.227504
1.310;-0.835828;0.232335
1.320;-0.832785;0.236486
1.330;-0.829341;0.240243
1.340;-0.825801;0.244174
1.350;-0.822191;0.248735
1.360;-0.818250;0.253953
1.370;-0.813530;0.259361
1.380;-0.807579;0.264221
1.390;-0.800127;0.267904
1.400;-0.791218;0.270207
1.410;-0.781208;0.271441
1.420;-0.770650;0.272250
1.430;-0.760102;0.273269
1.440;-0.749936;0.274808
1.450;-0.740236;0.276697
1.460;-0.730800;0.278360
1.470;-0.721255;0.279077
1.480;-0.711212;0.278321
1.490;-0.700409;0.276030
1.500;-0.688761;0.272714
1.510;-0.676324;0.269318
1.520;-0.663216;0.266913
1.530;-0.649559;0.266345
1.540;-0.635477;0.267982
1.550;-0.621120;0.271620
1.560;-0.606682;0.276536
1.570;-0.592378;0.281669
1.580;-0.578400;0.285886
1.590;-0.564862;0.288275
1.600;-0.551778;0.288365
1.610;-0.539085;0.286189
1.620;-0.526684;0.282181
1.630;-0.514474;0.276970
1.640;-0.502368;0.271177
1.650;-0.490283;0.265250
1.660;-0.478132;0.259393
1.670;-0.465834;0.253555
1.680;-0.453330;0.247480
1.690;-0.440582;0.240817
1.700;-0.427533;0.233259
1.710;-0.414051;0.224690
1.720;-0.399882;0.215271
1.730;-0.384638;0.205438
1.740;-0.367840;0.195786
1.750;-0.349040;0.186897
1.760;-0.327997;0.179149
1.770;-0.304824;0.172572
1.780;-0.280035;0.166809
1.790;-0.254424;0.161226
1.800;-0.228840;0.155167
1.810;-0.203956;0.148271
1.820;-0.180146;0.140654
1.830;-0.157525;0.132864
1.840;-0.136115;0.125611
1.850;-0.116033;0.119468
1.860;-0.097594;0.114687
1.870;-0.081266;0.111212
1.880;-0.067524;0.108821
1.890;-0.056674;0.107321
1.900;-0.048731;0.106691
1.910;-0.043410;0.107116
1.920;-0.040228;0.108885
1.930;-0.038684;0.112195
1.940;-0.038420;0.116978
1.950;-0.039282;0.122870
1.960;-0.041259;0.129315
1.970;-0.044364;0.135764
1.980;-0.048518;0.141842
1.990;-0.053489;0.147399
2.000;-0.058918;0.152460
2.010;-0.064411;0.157099
2.020;-0.069677;0.161321
2.030;-0.074668;0.165017
2.040;-0.079669;0.168022
2.050;-0.085278;0.170239
2.060;-0.092256;0.171762
2.070;-0.101276;0.172915
2.080;-0.112673;0.174141
2.090;-0.126295;0.175803
2.100;-0.141551;0.177994
2.110;-0.157623;0.180474
2.120;-0.173743;0.182776
2.130;-0.189388;0.184389
2.140;-0.204334;0.184946
2.150;-0.218580;0.184317
2.160;-0.232231;0.182618
2.170;-0.245428;0.180150
2.180;-0.258349;0.177306
2.190;-0.271265;0.174470
2.200;-0.284543;0.171961
2.210;-0.298591;0.169994
2.220;-0.313726;0.168642
2.230;-0.330049;0.167791
2.240;-0.347372;0.167117
2.250;-0.365239;0.166140
2.260;-0.383031;0.164382
2.270;-0.400118;0.161567
2.280;-0.416028;0.157756
2.290;-0.430588;0.153349
2.300;-0.443990;0.148940
2.310;-0.456748;0.145087
2.320;-0.469523;0.142116
2.330;-0.482875;0.140025
2.340;-0.497030;0.138553
2.350;-0.511783;0.137402
2.360;-0.526588;0.136480
2.370;-0.540794;0.136037
2.380;-0.553921;0.136586
2.390;-0.565832;0.138685
2.400;-0.576734;0.142702
2.410;-0.587032;0.148694
2.420;-0.597105;0.156411
2.430;-0.607117;0.165399
2.440;-0.616922;0.175125
2.450;-0.626101;0.185105
2.460;-0.634106;0.195014
2.470;-0.640475;0.204753
2.480;-0.645014;0.214457
2.490;-0.647898;0.224448
2.500;-0.649623;0.235133
2.510;-0.650829;0.246876
2.520;-0.652065;0.259883
2.530;-0.653590;0.274151
2.540;-0.655309;0.289498
2.550;-0.656862;0.305662
2.560;-0.657820;0.322390
2.570;-0.657902;0.339450
2.580;-0.657123;0.356561
2.590;-0.655776;0.373336
2.600;-0.654271;0.389297
2.610;-0.652874;0.403967
2.620;-0.651489;0.416998
2.630;-0.649597;0.428284
2.640;-0.646388;0.438044
2.650;-0.641022;0.446821
2.660;-0.632892;0.455356
2.670;-0.621774;0.464356
2.680;-0.607863;0.474257
2.690;-0.591709;0.485110
2.700;-0.574137;0.496654
2.710;-0.556129;0.508526
2.720;-0.538707;0.520464
2.730;-0.522778;0.532403
2.740;-0.509001;0.544402
2.750;-0.497666;0.556483
2.760;-0.488656;0.568502
2.770;-0.481480;0.580136
2.780;-0.475382;0.591003
2.790;-0.469486;0.600814
2.800;-0.462924;0.609479
2.810;-0.454984;0.617086
2.820;-0.445248;0.623809
2.830;-0.433736;0.629793
2.840;-0.420995;0.635094
2.850;-0.408046;0.639695
2.860;-0.396187;0.643595
2.870;-0.386667;0.646890
2.880;-0.380337;0.649810
2.890;-0.377398;0.652662
2.900;-0.377343;0.655738
2.910;-0.379111;0.659222
2.920;-0.381407;0.663125
2.930;-0.383086;0.667253
2.940;-0.383487;0.671218
2.950;-0.382584;0.674490
2.960;-0.380923;0.676485
2.970;-0.379391;0.676682
2.980;-0.378905;0.674752
2.990;-0.380145;0.670677
3.000;-0.383372;0.664839
3.010;-0.388393;0.657997
3.020;-0.394675;0.651135
3.030;-0.401524;0.645178
3.040;-0.408286;0.640704
3.050;-0.414456;0.637773
3.060;-0.419705;0.635985
3.070;-0.423839;0.634723
3.080;-0.426746;0.633435
3.090;-0.428369;0.631812
3.100;-0.428692;0.629819
3.110;-0.427749;0.627607
3.120;-0.425633;0.625401
3.130;-0.422501;0.623399
3.140;-0.418557;0.621696
3.150;-0.413980;0.620251
3.160;-0.408866;0.618915
3.170;-0.403204;0.617530
3.180;-0.396918;0.616051
3.190;-0.389918;0.614627
3.200;-0.382124;0.613554
3.210;-0.373460;0.613114
3.220;-0.363868;0.613388
3.230;-0.353359;0.614128
3.240;-0.342066;0.614782
3.250;-0.330254;0.614630
3.260;-0.318252;0.612962
3.270;-0.306354;0.609229
3.280;-0.294714;0.603139
3.290;-0.283271;0.594728
3.300;-0.271722;0.584376
3.310;-0.259583;0.572733
3.320;-0.246330;0.560570
3.330;-0.231586;0.548604
3.340;-0.215273;0.537391
3.350;-0.197667;0.527310
3.360;-0.179332;0.518572
3.370;-0.160981;0.511218
3.380;-0.143318;0.505057
3.390;-0.126902;0.499636
3.400;-0.112062;0.494299
3.410;-0.098851;0.488369
3.420;-0.087057;0.481360
3.430;-0.076270;0.473147
3.440;-0.066017;0.464005
3.450;-0.055896;0.454526
3.460;-0.045703;0.445412
3.470;-0.035476;0.437248
3.480;-0.025484;0.430337
3.490;-0.016166;0.424688
3.500;-0.008056;0.420101
3.510;-0.001721;0.416302
3.520;0.002309;0.413042
3.530;0.003635;0.410188
3.540;0.002066;0.407776
3.550;-0.002353;0.405997
3.560;-0.009414;0.405078
3.570;-0.018870;0.405101
3.580;-0.030541;0.405882
3.590;-0.044353;0.407013
3.600;-0.060254;0.408044
3.610;-0.078067;0.408696
3.620;-0.097353;0.408945
3.630;-0.117415;0.408955
3.640;-0.137445;0.408917
3.650;-0.156776;0.408903
3.660;-0.175096;0.408825
3.670;-0.192529;0.408480
3.680;-0.209548;0.407638
3.690;-0.226746;0.406110
3.700;-0.244610;0.403785
3.710;-0.263372;0.400634
3.720;-0.283017;0.396693
3.730;-0.303393;0.392039
3.740;-0.324331;0.386783
3.750;-0.345722;0.381098
3.760;-0.367504;0.375277
3.770;-0.389595;0.369758
3.780;-0.411814;0.365068
3.790;-0.433833;0.361670
3.800;-0.455201;0.359781
3.810;-0.475441;0.359260
3.820;-0.494202;0.359608
3.830;-0.511378;0.360110
3.840;-0.527153;0.360068
3.850;-0.541954;0.359033
3.860;-0.556338;0.356953
3.870;-0.570854;0.354143
3.880;-0.585934;0.351106
3.890;-0.601812;0.348301
3.900;-0.618481;0.345974
3.910;-0.635655;0.344140
3.920;-0.652785;0.342670
3.930;-0.669146;0.341423
3.940;-0.684002;0.340337
3.950;-0.696780;0.339444
3.960;-0.707190;0.338810
3.970;-0.715271;0.338469
3.980;-0.721408;0.338379
3.990;-0.726304;0.338461
4.000;-0.730863;0.338634
4.010;-0.735953;0.338851
4.020;-0.742103;0.339108
4.030;-0.749291;0.339464
4.040;-0.756928;0.340072
4.050;-0.764075;0.341186
4.060;-0.769776;0.343094
4.070;-0.773371;0.346002
4.080;-0.774655;0.349926
4.090;-0.773847;0.354671
4.100;-0.771425;0.359915
4.110;-0.767918;0.365375
4.120;-0.763764;0.370944
4.130;-0.759283;0.376744
4.140;-0.754744;0.383048
4.150;-0.750441;0.390104
4.160;-0.746718;0.397966
4.170;-0.743930;0.406400
4.180;-0.742357;0.414950
4.190;-0.742066;0.423117
4.200;-0.742766;0.430568
4.210;-0.743699;0.437254
4.220;-0.743667;0.443417
4.230;-0.741255;0.449496
4.240;-0.735231;0.456003
4.250;-0.724999;0.463394
4.260;-0.710894;0.471949
4.270;-0.694178;0.481677
4.280;-0.676714;0.492298
4.290;-0.660458;0.503314
4.300;-0.646969;0.514168
4.310;-0.637089;0.524416
4.320;-0.630851;0.533846
4.330;-0.627598;0.542507
4.340;-0.626250;0.550613
4.350;-0.625630;0.558368
4.360;-0.624769;0.565781
4.370;-0.623111;0.572565
4.380;-0.620561;0.578195
4.390;-0.617382;0.582092
4.400;-0.614016;0.583871
4.410;-0.610912;0.583496
4.420;-0.608401;0.581270
4.430;-0.606649;0.577674
4.440;-0.605642;0.573140
4.450;-0.605240;0.567866
4.460;-0.605242;0.561750
4.470;-0.605475;0.554467
4.480;-0.605845;0.545667
4.490;-0.606363;0.535227
4.500;-0.607127;0.523408
4.510;-0.608274;0.510819
4.520;-0.609931;0.498168
4.530;-0.612161;0.485907
4.540;-0.614927;0.473933
4.550;-0.618100;0.461422
4.560;-0.621497;0.446886
4.570;-0.624960;0.428474
4.580;-0.628441;0.404467
4.590;-0.632045;0.373855
4.600;-0.636013;0.336784
4.610;-0.640630;0.294680
4.620;-0.646095;0.249981
4.630;-0.652443;0.205532
4.640;-0.659576;0.163896
4.650;-0.667379;0.126827
4.660;-0.675838;0.095073
4.670;-0.685093;0.068501
4.680;-0.695413;0.046425
4.690;-0.707104;0.028022
4.700;-0.720393;0.012683
4.710;-0.735347;0.000219
4.720;-0.751836;-0.009144
4.730;-0.769554;-0.014962
4.740;-0.788070;-0.016863
4.750;-0.806887;-0.014790
4.760;-0.825470;-0.009098
4.770;-0.843260;-0.000500
4.780;-0.859678;0.010110
4.790;-0.874202;0.021877
4.800;-0.886508;0.034160
4.810;-0.896598;0.046643
4.820;-0.904826;0.059356
4.830;-0.911768;0.072638
4.840;-0.918003;0.087022
4.850;-0.923926;0.103063
4.860;-0.929681;0.121110
4.870;-0.935215;0.141100
4.880;-0.940408;0.162447
4.890;-0.945188;0.184113
4.900;-0.949553;0.204839
4.910;-0.953514;0.223458
4.920;-0.957013;0.239163
4.930;-0.959880;0.251669
4.940;-0.961873;0.261231
4.950;-0.962750;0.268530
4.960;-0.962373;0.274456
4.970;-0.960779;0.279873
4.980;-0.958189;0.285419
4.990;-0.954938;0.291437
5.000;-0.951352;0.298010
5.010;-0.947651;0.305064
5.020;-0.943915;0.312453
5.030;-0.940110;0.320003
5.040;-0.936172;0.327549
5.050;-0.932080;0.334984
5.060;-0.927889;0.342329
5.070;-0.923674;0.349775
5.080;-0.919399;0.357675
5.090;-0.914787;0.366464
5.100;-0.909258;0.376524
5.110;-0.901980;0.388045
5.120;-0.892013;0.400926
5.130;-0.878525;0.414795
5.140;-0.861047;0.429147
5.150;-0.839686;0.443547
5.160;-0.815221;0.457779
5.170;-0.789026;0.471892
5.180;-0.762817;0.486117
5.190;-0.738307;0.500720
5.200;-0.716873;0.515855
5.210;-0.699332;0.531453
5.220;-0.685866;0.547182
5.230;-0.676099;0.562496
5.240;-0.669258;0.576789
5.250;-0.664357;0.589623
5.260;-0.660393;0.600903
5.270;-0.656535;0.610922
5.280;-0.652286;0.620243
5.290;-0.647571;0.629472
5.300;-0.642699;0.639055
5.310;-0.638198;0.649163
5.320;-0.634585;0.659700
5.330;-0.632155;0.670395
5.340;-0.630864;0.680935
5.350;-0.630314;0.691094
5.360;-0.629849;0.700817
5.370;-0.628721;0.710245
5.380;-0.626265;0.719692
5.390;-0.622036;0.729535
5.400;-0.615871;0.740059
5.410;-0.607875;0.751313
5.420;-0.598359;0.763053
5.430;-0.587765;0.774806
5.440;-0.576609;0.786039
5.450;-0.565425;0.796342
5.460;-0.554706;0.805563
5.470;-0.544823;0.813836
5.480;-0.535952;0.821485
5.490;-0.528037;0.828858
5.500;-0.520814;0.836170
5.510;-0.513893;0.843440
5.520;-0.506891;0.850542
5.530;-0.499551;0.857316
5.540;-0.491815;0.863665
5.550;-0.483818;0.869581
5.560;-0.475808;0.875119
5.570;-0.468011;0.880362
5.580;-0.460488;0.885383
5.590;-0.453050;0.890231
5.600;-0.445297;0.894918
5.610;-0.436771;0.899422
5.620;-0.427180;0.903701
5.630;-0.416552;0.907694
5.640;-0.405259;0.911302
5.650;-0.393893;0.914339
5.660;-0.383078;0.916507
5.670;-0.373297;0.917434
5.680;-0.364784;0.916779
5.690;-0.357488;0.914379
5.700;-0.351084;0.910384
5.710;-0.345054;0.905285
5.720;-0.338817;0.899810
5.730;-0.331901;0.894722
5.740;-0.324072;0.890598
5.750;-0.315381;0.887672
5.760;-0.306128;0.885815
5.770;-0.296757;0.884612
5.780;-0.287757;0.883530
5.790;-0.279569;0.882080
5.800;-0.272512;0.879941
5.810;-0.266721;0.877011
5.820;-0.262101;0.873376
5.830;-0.258329;0.869226
5.840;-0.254919;0.864766
5.850;-0.251336;0.860168
5.860;-0.247131;0.855608
5.870;-0.242035;0.851350
5.880;-0.236016;0.847785
5.890;-0.229291;0.845320
5.900;-0.222300;0.844146
5.910;-0.215645;0.844007
5.920;-0.209995;0.844163
5.930;-0.205966;0.843594
5.940;-0.204013;0.841382
5.950;-0.204302;0.837074
5.960;-0.206651;0.830864
5.970;-0.210563;0.823517
5.980;-0.215388;0.816067
5.990;-0.220543;0.809441
6.000;-0.225683;0.804135
6.010;-0.230758;0.800081
6.020;-0.235969;0.796709
6.030;-0.241679;0.793181
6.040;-0.248284;0.788709
6.050;-0.256074;0.782837
6.060;-0.265102;0.775581
6.070;-0.275120;0.767374
6.080;-0.285623;0.758845
6.090;-0.295991;0.750562
6.100;-0.305692;0.742842
6.110;-0.314423;0.735706
6.120;-0.322149;0.728953
6.130;-0.329021;0.722293
6.140;-0.335252;0.715497
6.150;-0.341034;0.708488
6.160;-0.346526;0.701324
6.170;-0.351877;0.694077
6.180;-0.357259;0.686687
6.190;-0.362859;0.678921
6.200;-0.368822;0.670478
6.210;-0.375167;0.661168
6.220;-0.381713;0.651060
6.230;-0.388054;0.640488
6.240;-0.393602;0.629926
6.250;-0.397692;0.619769
6.260;-0.399757;0.610152
6.270;-0.399538;0.600910
6.280;-0.397241;0.591716
6.290;-0.393551;0.582357
6.300;-0.389452;0.572969
6.310;-0.385903;0.564068
6.320;-0.383544;0.556328
6.330;-0.382565;0.550206
6.340;-0.382786;0.545633
6.350;-0.383886;0.541952
6.360;-0.385608;0.538146
6.370;-0.387849;0.533249
6.380;-0.390578;0.526748
6.390;-0.393682;0.518799
6.400;-0.396826;0.510148
6.410;-0.399450;0.501822
6.420;-0.400905;0.494717
6.430;-0.400674;0.489280
6.440;-0.398589;0.485372
6.450;-0.394926;0.482380
6.460;-0.390349;0.479499
6.470;-0.385694;0.476057
6.480;-0.381711;0.471759
6.490;-0.378857;0.466728
6.500;-0.377230;0.461381
6.510;-0.376626;0.456227
6.520;-0.376707;0.451683
6.530;-0.377187;0.448000
6.540;-0.377981;0.445259
6.550;-0.379234;0.443398
6.560;-0.381224;0.442210
6.570;-0.384190;0.441345
6.580;-0.388183;0.440362
6.590;-0.392989;0.438865
6.600;-0.398176;0.436675
6.610;-0.403216;0.433924
6.620;-0.407651;0.431023
6.630;-0.411223;0.428477
6.640;-0.413940;0.426654
6.650;-0.416040;0.425598
6.660;-0.417890;0.424982
6.670;-0.419860;0.424236
6.680;-0.422229;0.422793
6.690;-0.425171;0.420347
6.700;-0.428804;0.416998
6.710;-0.433250;0.413243
6.720;-0.438656;0.409813
6.730;-0.445138;0.407446
6.740;-0.452689;0.406664
6.750;-0.461148;0.407653
6.760;-0.470258;0.410280
6.770;-0.479788;0.414191
6.780;-0.489636;0.418908
6.790;-0.499858;0.423844
6.800;-0.510602;0.428284
6.810;-0.522015;0.431411
6.820;-0.534155;0.432438
6.830;-0.546944;0.430804
6.840;-0.560147;0.426316
6.850;-0.573406;0.419163
6.860;-0.586336;0.409792
6.870;-0.598687;0.398742
6.880;-0.610483;0.386524
6.890;-0.622048;0.373579
6.900;-0.633858;0.360276
6.910;-0.646290;0.346894
6.920;-0.659423;0.333626
6.930;-0.672985;0.320618
6.940;-0.686469;0.308062
6.950;-0.699328;0.296267
6.960;-0.711148;0.285626
6.970;-0.721744;0.276490
6.980;-0.731172;0.269066
6.990;-0.739678;0.263413
7.000;-0.747614;0.259482
7.010;-0.755341;0.257115
7.020;-0.763144;0.255987
7.030;-0.771170;0.255566
7.040;-0.779424;0.255206
7.050;-0.787803;0.254330
7.060;-0.796163;0.252638
7.070;-0.804357;0.250215
7.080;-0.812251;0.247498
7.090;-0.819697;0.245124
7.100;-0.826523;0.243705
7.110;-0.832539;0.243644
7.120;-0.837583;0.245050
7.130;-0.841571;0.247806
7.140;-0.844514;0.251721
7.150;-0.846484;0.256685
7.160;-0.847559;0.262743
7.170;-0.847762;0.270057
7.180;-0.847056;0.278781
7.190;-0.845374;0.288888
7.200;-0.842696;0.300053
7.210;-0.839100;0.311665
7.220;-0.834754;0.322981
7.230;-0.829857;0.333393
7.240;-0.824544;0.342695
7.250;-0.818815;0.351216
7.260;-0.812501;0.359733
7.270;-0.805317;0.369158
7.280;-0.796947;0.380168
7.290;-0.787166;0.392914
7.300;-0.775926;0.406956
7.310;-0.763386;0.421423
7.320;-0.749856;0.435356
7.330;-0.735717;0.448096
7.340;-0.721327;0.459542
7.350;-0.706988;0.470155
7.360;-0.692927;0.480684
7.370;-0.679314;0.491748
7.380;-0.666253;0.503506
7.390;-0.653766;0.515555
7.400;-0.641759;0.527080
7.410;-0.630014;0.537134
7.420;-0.618219;0.544944
7.430;-0.606054;0.550146
7.440;-0.593305;0.552892
7.450;-0.579987;0.553817
7.460;-0.566387;0.553862
7.470;-0.553000;0.554023
7.480;-0.540343;0.555073
7.490;-0.528726;0.557326
7.500;-0.518107;0.560506
7.510;-0.508112;0.563781
7.520;-0.498206;0.565975
7.530;-0.487947;0.565910
7.540;-0.477185;0.562771
7.550;-0.466131;0.556335
7.560;-0.455262;0.547032
7.570;-0.445126;0.535828
7.580;-0.436125;0.524007
7.590;-0.428355;0.512899
7.600;-0.421572;0.503613
7.610;-0.415287;0.496806
7.620;-0.408950;0.492563
7.630;-0.402128;0.490449
7.640;-0.394629;0.489694
7.650;-0.386517;0.489448
7.660;-0.378039;0.489022
7.670;-0.369499;0.488048
7.680;-0.361170;0.486530
7.690;-0.353249;0.484769
7.700;-0.345873;0.483230
7.710;-0.339159;0.482382
7.720;-0.333222;0.482569
7.730;-0.328166;0.483931
7.740;-0.324044;0.486395
7.750;-0.320825;0.489725
7.760;-0.318375;0.493615
7.770;-0.316494;0.497770
7.780;-0.314992;0.501975
7.790;-0.313757;0.506117
7.800;-0.312787;0.510170
7.810;-0.312134;0.514153
7.820;-0.311803;0.518062
7.830;-0.311630;0.521827
7.840;-0.311220;0.525269
7.850;-0.309997;0.528101
7.860;-0.307397;0.529975
7.870;-0.303120;0.530595
7.880;-0.297353;0.529851
7.890;-0.290816;0.527920
7.900;-0.284610;0.525239
7.910;-0.279907;0.522367
7.920;-0.277614;0.519800
7.930;-0.278119;0.517835
7.940;-0.281219;0.516518
7.950;-0.286229;0.515693
7.960;-0.292222;0.515082
7.970;-0.298304;0.514409
7.980;-0.303856;0.513482
