Time[s];COPx[cm];COPy[cm]
0.010;-2.526374;-0.470248
0.020;-2.522277;-0.472227
0.030;-2.517598;-0.474222
0.040;-2.512028;-0.476173
0.050;-2.505572;-0.478002
0.060;-2.498528;-0.479605
0.070;-2.491341;-0.480890
0.080;-2.484425;-0.481834
0.090;-2.478015;-0.482524
0.100;-2.472105;-0.483168
0.110;-2.466479;-0.484068
0.120;-2.460816;-0.485579
0.130;-2.454825;-0.488041
0.140;-2.448381;-0.491668
0.150;-2.441625;-0.496441
0.160;-2.434973;-0.502033
0.170;-2.429013;-0.507833
0.180;-2.424295;-0.513097
0.190;-2.421115;-0.517166
0.200;-2.419400;-0.519654
0.210;-2.418759;-0.520505
0.220;-2.418644;-0.519920
0.230;-2.418539;-0.518225
0.240;-2.418098;-0.515777
0.250;-2.417206;-0.512937
0.260;-2.415962;-0.510088
0.270;-2.414599;-0.507620
0.280;-2.413374;-0.505881
0.290;-2.412457;-0.505074
0.300;-2.411872;-0.505171
0.310;-2.411503;-0.505890
0.320;-2.411154;-0.506770
0.330;-2.410623;-0.507320
0.340;-2.409740;-0.507197
0.350;-2.408377;-0.506331
0.360;-2.406449;-0.504966
0.370;-2.403904;-0.503585
0.380;-2.400728;-0.502722
0.390;-2.396932;-0.502743
0.400;-2.392554;-0.503708
0.410;-2.387659;-0.505358
0.420;-2.382330;-0.507227
0.430;-2.376642;-0.508810
0.440;-2.370648;-0.509741
0.450;-2.364406;-0.509955
0.460;-2.358019;-0.509764
0.470;-2.351648;-0.509791
0.480;-2.345475;-0.510743
0.490;-2.339653;-0.513128
0.500;-2.334261;-0.517033
0.510;-2.329282;-0.522115
0.520;-2.324602;-0.527772
0.530;-2.320026;-0.533397
0.540;-2.315318;-0.538598
0.550;-2.310243;-0.543290
0.560;-2.304612;-0.547679
0.570;-2.298330;-0.552161
0.580;-2.291443;-0.557182
0.590;-2.284169;-0.563122
0.600;-2.276881;-0.570208
0.610;-2.270044;-0.578485
0.620;-2.264117;-0.587824
0.630;-2.259474;-0.597961
0.640;-2.256358;-0.608581
0.650;-2.254868;-0.619406
0.660;-2.254965;-0.630250
0.670;-2.256484;-0.640990
0.680;-2.259157;-0.651465
0.690;-2.262644;-0.661371
0.700;-2.266573;-0.670236
0.710;-2.270580;-0.677534
0.720;-2.274335;-0.682922
0.730;-2.277568;-0.686481
0.740;-2.280095;-0.688804
0.750;-2.281850;-0.690846
0.760;-2.282927;-0.693551
0.770;-2.283596;-0.697463
0.780;-2.284272;-0.702528
0.790;-2.285406;-0.708194
0.800;-2.287328;-0.713723
0.810;-2.290122;-0.718526
0.820;-2.293592;-0.722353
0.830;-2.297366;-0.725311
0.840;-2.301052;-0.727742
0.850;-2.304407;-0.730041
0.860;-2.307417;-0.732495
0.870;-2.310313;-0.735185
0.880;-2.313487;-0.737995
0.890;-2.317374;-0.740688
0.900;-2.322332;-0.743016
0.910;-2.328553;-0.744819
0.920;-2.336042;-0.746072
0.930;-2.344645;-0.746875
0.940;-2.354099;-0.747371
0.950;-2.364097;-0.747672
0.960;-2.374358;-0.747813
0.970;-2.384695;-0.747757
0.980;-2.395072;-0.747436
0.990;-2.405600;-0.746807
1.000;-2.416482;-0.745866
1.010;-2.427918;-0.744619
1.020;-2.440023;-0.742999
1.030;-2.452802;-0.740823
1.040;-2.466179;-0.737821
1.050;-2.480051;-0.733745
1.060;-2.494328;-0.728477
1.070;-2.508947;-0.722079
1.080;-2.523869;-0.714752
1.090;-2.539076;-0.706733
1.100;-2.554575;-0.698186
1.110;-2.570395;-0.689153
1.120;-2.586580;-0.679599
1.130;-2.603154;-0.669519
1.140;-2.620051;-0.659054
1.150;-2.637050;-0.648531
1.160;-2.653726;-0.638403
1.170;-2.669499;-0.629129
1.180;-2.683765;-0.621055
1.190;-2.696073;-0.614371
1.200;-2.706247;-0.609132
1.210;-2.714404;-0.605318
1.220;-2.720856;-0.602872
1.230;-2.725983;-0.601712
1.240;-2.730119;-0.601711
1.250;-2.733513;-0.602684
1.260;-2.736339;-0.604380
1.270;-2.738736;-0.606504
1.280;-2.740809;-0.608751
1.290;-2.742586;-0.610870
1.300;-2.743961;-0.612706
1.310;-2.744670;-0.614230
1.320;-2.744350;-0.615516
1.330;-2.742646;-0.616679
1.340;-2.739342;-0.617816
1.350;-2.734450;-0.618959
1.360;-2.728231;-0.620050
1.370;-2.721153;-0.620930
1.380;-2.713783;-0.621348
1.390;-2.706676;-0.620989
1.400;-2.700270;-0.619529
1.410;-2.694822;-0.616684
1.420;-2.690405;-0.612224
1.430;-2.686958;-0.605978
1.440;-2.684378;-0.597841
1.450;-2.682612;-0.587807
1.460;-2.681695;-0.575990
1.470;-2.681722;-0.562644
1.480;-2.682761;-0.548172
1.490;-2.684782;-0.533159
1.500;-2.687642;-0.518410
1.510;-2.691127;-0.504882
1.520;-2.695025;-0.493488
1.530;-2.699188;-0.484815
1.540;-2.703568;-0.478940
1.550;-2.708213;-0.475469
1.560;-2.713233;-0.473740
1.570;-2.718714;-0.473066
1.580;-2.724650;-0.472887
1.590;-2.730929;-0.472802
1.600;-2.737397;-0.472552
1.610;-2.743965;-0.472019
1.620;-2.750688;-0.471234
1.630;-2.757769;-0.470372
1.640;-2.765499;-0.469693
1.650;-2.774147;-0.469430
1.660;-2.783830;-0.469653
1.670;-2.794389;-0.470206
1.680;-2.805333;-0.470724
1.690;-2.815880;-0.470742
1.700;-2.825126;-0.469824
1.710;-2.832297;-0.467678
1.720;-2.836996;-0.464207
1.730;-2.839345;-0.459474
1.740;-2.839961;-0.453605
1.750;-2.839754;-0.446697
1.760;-2.839639;-0.438810
1.770;-2.840242;-0.430073
1.780;-2.841715;-0.420835
1.790;-2.843719;-0.411760
1.800;-2.845604;-0.403739
1.810;-2.846689;-0.397630
1.820;-2.846518;-0.393929
1.830;-2.844966;-0.392582
1.840;-2.842184;-0.393049
1.850;-2.838451;-0.394607
1.860;-2.834018;-0.396700
1.870;-2.829035;-0.399159
1.880;-2.823558;-0.402189
1.890;-2.817637;-0.406172
1.900;-2.811395;-0.411422
1.910;-2.805064;-0.417983
1.920;-2.798956;-0.425574
1.930;-2.793405;-0.433647
1.940;-2.788692;-0.441532
1.950;-2.785001;-0.448592
1.960;-2.782400;-0.454370
1.970;-2.780876;-0.458690
1.980;-2.780391;-0.461686
1.990;-2.780936;-0.463760
2.000;-2.782529;-0.465453
2.010;-2.785182;-0.467276
2.020;-2.788831;-0.469573
2.030;-2.793301;-0.472451
2.040;-2.798313;-0.475808
2.050;-2.803549;-0.479402
2.060;-2.808730;-0.482938
2.070;-2.813689;-0.486150
2.080;-2.818411;-0.488857
2.090;-2.823015;-0.491009
2.100;-2.827693;-0.492709
2.110;-2.832627;-0.494184
2.120;-2.837913;-0.495691
2.130;-2.843499;-0.497365
2.140;-2.849189;-0.499124
2.150;-2.854686;-0.500673
2.160;-2.859683;-0.501634
2.170;-2.863953;-0.501712
2.180;-2.867397;-0.500822
2.190;-2.870026;-0.499121
2.200;-2.871911;-0.496930
2.210;-2.873123;-0.494621
2.220;-2.873720;-0.492503
2.230;-2.873763;-0.490750
2.240;-2.873340;-0.489374
2.250;-2.872582;-0.488257
2.260;-2.871648;-0.487210
2.270;-2.870703;-0.486064
2.280;-2.869890;-0.484720
2.290;-2.869306;-0.483187
2.300;-2.868981;-0.481587
2.310;-2.868882;-0.480166
2.320;-2.868947;-0.479280
2.330;-2.869128;-0.479337
2.340;-2.869418;-0.480677
2.350;-2.869832;-0.483415
2.360;-2.870364;-0.487324
2.370;-2.870967;-0.491848
2.380;-2.871561;-0.496250
2.390;-2.872093;-0.499853
2.400;-2.872592;-0.502245
2.410;-2.873184;-0.503368
2.420;-2.874048;-0.503455
2.430;-2.875321;-0.502896
2.440;-2.877021;-0.502103
2.450;-2.879010;-0.501420
2.460;-2.881029;-0.501085
2.470;-2.882760;-0.501221
2.480;-2.883891;-0.501832
2.490;-2.884129;-0.502831
2.500;-2.883176;-0.504084
2.510;-2.880716;-0.505470
2.520;-2.876461;-0.506935
2.530;-2.870290;-0.508516
2.540;-2.862420;-0.510344
2.550;-2.853487;-0.512630
2.560;-2.844479;-0.515626
2.570;-2.836503;-0.519554
2.580;-2.830463;-0.524521
2.590;-2.826803;-0.530451
2.600;-2.825385;-0.537055
2.610;-2.825554;-0.543868
2.620;-2.826350;-0.550338
2.630;-2.826811;-0.555959
2.640;-2.826258;-0.560391
2.650;-2.824482;-0.563553
2.660;-2.821742;-0.565631
2.670;-2.818585;-0.567020
2.680;-2.815566;-0.568216
2.690;-2.813020;-0.569701
2.700;-2.810969;-0.571815
2.710;-2.809186;-0.574670
2.720;-2.807360;-0.578116
2.730;-2.805285;-0.581803
2.740;-2.803000;-0.585314
2.750;-2.800841;-0.588331
2.760;-2.799376;-0.590764
2.770;-2.799235;-0.592779
2.780;-2.800887;-0.594710
2.790;-2.804472;-0.596883
2.800;-2.809749;-0.599435
2.810;-2.816209;-0.602236
2.820;-2.823283;-0.604966
2.830;-2.830546;-0.607301
2.840;-2.837817;-0.609090
2.850;-2.845106;-0.610429
2.860;-2.852489;-0.611588
2.870;-2.859964;-0.612869
2.880;-2.867402;-0.614464
2.890;-2.874587;-0.616402
2.900;-2.881305;-0.618563
2.910;-2.887439;-0.620770
2.920;-2.893024;-0.622851
2.930;-2.898259;-0.624695
2.940;-2.903462;-0.626269
2.950;-2.909013;-0.627632
2.960;-2.915287;-0.628923
2.970;-2.922578;-0.630318
2.980;-2.931045;-0.631964
2.990;-2.940683;-0.633902
3.000;-2.951334;-0.636025
3.010;-2.962728;-0.638082
3.020;-2.974523;-0.639761
3.030;-2.986354;-0.640814
3.040;-2.997858;-0.641139
3.050;-3.008728;-0.640769
3.060;-3.018761;-0.639801
3.070;-3.027930;-0.638323
3.080;-3.036409;-0.636400
3.090;-3.044550;-0.634117
3.100;-3.052785;-0.631636
3.110;-3.061467;-0.629201
3.120;-3.070715;-0.627096
3.130;-3.080346;-0.625557
3.140;-3.089935;-0.624696
3.150;-3.098976;-0.624470
3.160;-3.107067;-0.624718
3.170;-3.114026;-0.625259
3.180;-3.119920;-0.626009
3.190;-3.125031;-0.627068
3.200;-3.129768;-0.628695
3.210;-3.134553;-0.631188
3.220;-3.139709;-0.634753
3.230;-3.145378;-0.639423
3.240;-3.151507;-0.645074
3.250;-3.157895;-0.651453
3.260;-3.164287;-0.658204
3.270;-3.170448;-0.664889
3.280;-3.176185;-0.671046
3.290;-3.181348;-0.676288
3.300;-3.185832;-0.680416
3.310;-3.189619;-0.683511
3.320;-3.192816;-0.685945
3.330;-3.195677;-0.688328
3.340;-3.198566;-0.691365
3.350;-3.201864;-0.695654
3.360;-3.205843;-0.701525
3.370;-3.210564;-0.708958
3.380;-3.215853;-0.717658
3.390;-3.221366;-0.727199
3.400;-3.226707;-0.737205
3.410;-3.231571;-0.747472
3.420;-3.235852;-0.758026
3.430;-3.239685;-0.769090
3.440;-3.243404;-0.780978
3.450;-3.247459;-0.793920
3.460;-3.252329;-0.807881
3.470;-3.258459;-0.822447
3.480;-3.266211;-0.836840
3.490;-3.275813;-0.850021
3.500;-3.287303;-0.860884
3.510;-3.300478;-0.868480
3.520;-3.314896;-0.872249
3.530;-3.329939;-0.872197
3.540;-3.344918;-0.868954
3.550;-3.359182;-0.863679
3.560;-3.372188;-0.857805
3.570;-3.383542;-0.852703
3.580;-3.393027;-0.849377
3.590;-3.400621;-0.848289
3.600;-3.406475;-0.849331
3.610;-3.410841;-0.851919
3.620;-3.413962;-0.855174
3.630;-3.415976;-0.858155
3.640;-3.416877;-0.860103
3.650;-3.416587;-0.860611
3.660;-3.415105;-0.859679
3.670;-3.412671;-0.857627
3.680;-3.409836;-0.854916
3.690;-3.407383;-0.851963
3.700;-3.406097;-0.849027
3.710;-3.406489;-0.846183
3.720;-3.408582;-0.843345
3.730;-3.411859;-0.840352
3.740;-3.415405;-0.837049
3.750;-3.418187;-0.833351
3.760;-3.419394;-0.829290
3.770;-3.418708;-0.825028
3.780;-3.416392;-0.820854
3.790;-3.413171;-0.817126
3.800;-3.409937;-0.814147
3.810;-3.407441;-0.812016
3.820;-3.406087;-0.810529
3.830;-3.405896;-0.809174
3.840;-3.406604;-0.807209
3.850;-3.407821;-0.803816
3.860;-3.409158;-0.798286
3.870;-3.410310;-0.790214
3.880;-3.411087;-0.779666
3.890;-3.411423;-0.767232
3.900;-3.411348;-0.753936
3.910;-3.410933;-0.740986
3.920;-3.410242;-0.729449
3.930;-3.409314;-0.719988
3.940;-3.408171;-0.712764
3.950;-3.406831;-0.707554
3.960;-3.405314;-0.703998
3.970;-3.403636;-0.701818
3.980;-3.401797;-0.700890
3.990;-3.399777;-0.701163
4.000;-3.397537;-0.702533
4.010;-3.395049;-0.704771
4.020;-3.392338;-0.707571
4.030;-3.389524;-0.710662
4.040;-3.386825;-0.713895
4.050;-3.384494;-0.717253
4.060;-3.382695;-0.720789
4.070;-3.381391;-0.724538
4.080;-3.380308;-0.728445
4.090;-3.379040;-0.732339
4.100;-3.377229;-0.735929
4.110;-3.374735;-0.738833
4.120;-3.371691;-0.740639
4.130;-3.368431;-0.740984
4.140;-3.365328;-0.739633
4.150;-3.362629;-0.736526
4.160;-3.360365;-0.731813
4.170;-3.358358;-0.725854
4.180;-3.356302;-0.719202
4.190;-3.353878;-0.712561
4.200;-3.350842;-0.706699
4.210;-3.347067;-0.702324
4.220;-3.342539;-0.699948
4.230;-3.337365;-0.699781
4.240;-3.331776;-0.701710
4.250;-3.326128;-0.705340
4.260;-3.320856;-0.710089
4.270;-3.316369;-0.715302
4.280;-3.312951;-0.720377
4.290;-3.310694;-0.724875
4.300;-3.309517;-0.728593
4.310;-3.309234;-0.731586
4.320;-3.309652;-0.734110
4.330;-3.310629;-0.736494
4.340;-3.312081;-0.738989
4.350;-3.313928;-0.741701
4.360;-3.316020;-0.744627
4.370;-3.318091;-0.747763
4.380;-3.319802;-0.751161
4.390;-3.320855;-0.754912
4.400;-3.321129;-0.759045
4.410;-3.320770;-0.763451
4.420;-3.320157;-0.767880
4.430;-3.319772;-0.772011
4.440;-3.320019;-0.775550
4.450;-3.321062;-0.778325
4.460;-3.322732;-0.780354
4.470;-3.324569;-0.781883
4.480;-3.325979;-0.783374
4.490;-3.326452;-0.785414
4.500;-3.325758;-0.788542
4.510;-3.324024;-0.793044
4.520;-3.321645;-0.798791
4.530;-3.319084;-0.805228
4.540;-3.316650;-0.811531
4.550;-3.314397;-0.816886
4.560;-3.312190;-0.820782
4.570;-3.309856;-0.823178
4.580;-3.307320;-0.824491
4.590;-3.304639;-0.825414
4.600;-3.301947;-0.826659
4.610;-3.299348;-0.828733
4.620;-3.296846;-0.831817
4.630;-3.294355;-0.835770
4.640;-3.291786;-0.840215
4.650;-3.289148;-0.844670
4.660;-3.286589;-0.848659
4.670;-3.284354;-0.851771
4.680;-3.282668;-0.853678
4.690;-3.281628;-0.854147
4.700;-3.281171;-0.853085
4.710;-3.281121;-0.850592
4.720;-3.281286;-0.846979
4.730;-3.281517;-0.842728
4.740;-3.281708;-0.838384
4.750;-3.281769;-0.834419
4.760;-3.281601;-0.831092
4.770;-3.281103;-0.828324
4.780;-3.280198;-0.825667
4.790;-3.278855;-0.822421
4.800;-3.277113;-0.817901
4.810;-3.275087;-0.811740
4.820;-3.272949;-0.804054
4.830;-3.270877;-0.795393
4.840;-3.268995;-0.786488
4.850;-3.267324;-0.777920
4.860;-3.265774;-0.769875
4.870;-3.264187;-0.762129
4.880;-3.262429;-0.754257
4.890;-3.260482;-0.745935
4.900;-3.258511;-0.737137
4.910;-3.256838;-0.728130
4.920;-3.255844;-0.719310
4.930;-3.255818;-0.711024
4.940;-3.256829;-0.703470
4.950;-3.258666;-0.696698
4.960;-3.260881;-0.690629
4.970;-3.262902;-0.685087
4.980;-3.264171;-0.679827
4.990;-3.264251;-0.674601
5.000;-3.262879;-0.669239
5.010;-3.259967;-0.663699
5.020;-3.255579;-0.658057
5.030;-3.249895;-0.652454
5.040;-3.243182;-0.647009
5.050;-3.235769;-0.641768
5.060;-3.228008;-0.636679
5.070;-3.220224;-0.631630
5.080;-3.212659;-0.626484
5.090;-3.205455;-0.621116
5.100;-3.198668;-0.615467
5.110;-3.192308;-0.609596
5.120;-3.186362;-0.603714
5.130;-3.180800;-0.598183
5.140;-3.175577;-0.593463
5.150;-3.170648;-0.590021
5.160;-3.165987;-0.588218
5.170;-3.161586;-0.588191
5.180;-3.157410;-0.589785
5.190;-3.153338;-0.592560
5.200;-3.149130;-0.595894
5.210;-3.144458;-0.599150
5.220;-3.138996;-0.601851
5.230;-3.132522;-0.603808
5.240;-3.124980;-0.605130
5.250;-3.116493;-0.606120
5.260;-3.107360;-0.607077
5.270;-3.098032;-0.608135
5.280;-3.089076;-0.609215
5.290;-3.081073;-0.610112
5.300;-3.074460;-0.610661
5.310;-3.069364;-0.610862
5.320;-3.065522;-0.610904
5.330;-3.062345;-0.611079
5.340;-3.059110;-0.611639
5.350;-3.055212;-0.612658
5.360;-3.050359;-0.614001
5.370;-3.044628;-0.615404
5.380;-3.038347;-0.616652
5.390;-3.031888;-0.617727
5.400;-3.025448;-0.618826
5.410;-3.018957;-0.620224
5.420;-3.012113;-0.622079
5.430;-3.004541;-0.624311
5.440;-2.995982;-0.626655
5.450;-2.986433;-0.628847
5.460;-2.976162;-0.630824
5.470;-2.965592;-0.632805
5.480;-2.955123;-0.635180
5.490;-2.944980;-0.638277
5.500;-2.935168;-0.642139
5.510;-2.925565;-0.646460
5.520;-2.916062;-0.650703
5.530;-2.906670;-0.654326
5.540;-2.897531;-0.656991
5.550;-2.888854;-0.658658
5.560;-2.880829;-0.659533
5.570;-2.873581;-0.659910
5.580;-2.867166;-0.660029
5.590;-2.861590;-0.659998
5.600;-2.856822;-0.659842
5.610;-2.852792;-0.659600
5.620;-2.849394;-0.659392
5.630;-2.846500;-0.659404
5.640;-2.843978;-0.659781
5.650;-2.841724;-0.660513
5.660;-2.839685;-0.661368
5.670;-2.837880;-0.661926
5.680;-2.836409;-0.661729
5.690;-2.835439;-0.660475
5.700;-2.835154;-0.658178
5.710;-2.835694;-0.655189
5.720;-2.837094;-0.652088
5.730;-2.839285;-0.649502
5.740;-2.842124;-0.647939
5.750;-2.845444;-0.647675
5.760;-2.849056;-0.648710
5.770;-2.852716;-0.650786
5.780;-2.856108;-0.653482
5.790;-2.858887;-0.656349
5.800;-2.860788;-0.659029
5.810;-2.861731;-0.661315
5.820;-2.861836;-0.663125
5.830;-2.861368;-0.664443
5.840;-2.860643;-0.665264
5.850;-2.859947;-0.665567
5.860;-2.859489;-0.665301
5.870;-2.859391;-0.664396
5.880;-2.859699;-0.662805
5.890;-2.860419;-0.660570
5.900;-2.861534;-0.657877
5.910;-2.863015;-0.655054
5.920;-2.864811;-0.652516
5.930;-2.866832;-0.650676
5.940;-2.868917;-0.649852
5.950;-2.870815;-0.650173
5.960;-2.872203;-0.651520
5.970;-2.872761;-0.653522
5.980;-2.872276;-0.655615
5.990;-2.870751;-0.657167
6.000;-2.868439;-0.657630
6.010;-2.865795;-0.656707
6.020;-2.863358;-0.654457
6.030;-2.861620;-0.651299
6.040;-2.860931;-0.647875
6.050;-2.861464;-0.644832
6.060;-2.863216;-0.642595
6.070;-2.866014;-0.641257
6.080;-2.869542;-0.640590
6.090;-2.873378;-0.640149
6.100;-2.877090;-0.639394
6.110;-2.880339;-0.637823
6.120;-2.882983;-0.635123
6.130;-2.885124;-0.631318
6.140;-2.887070;-0.626831
6.150;-2.889205;-0.622399
6.160;-2.891800;-0.618841
6.170;-2.894879;-0.616763
6.180;-2.898176;-0.616335
6.190;-2.901226;-0.617258
6.200;-2.903537;-0.618894
6.210;-2.904771;-0.620499
6.220;-2.904852;-0.621417
6.230;-2.903984;-0.621171
6.240;-2.902567;-0.619475
6.250;-2.901089;-0.616233
6.260;-2.900003;-0.611587
6.270;-2.899649;-0.605963
6.280;-2.900187;-0.600062
6.290;-2.901568;-0.594703
6.300;-2.903535;-0.590569
6.310;-2.905665;-0.587938
6.320;-2.907462;-0.586559
6.330;-2.908458;-0.585748
6.340;-2.908318;-0.584695
6.350;-2.906916;-0.582827
6.360;-2.904363;-0.580061
6.370;-2.900980;-0.576820
6.380;-2.897239;-0.573832
6.390;-2.893652;-0.571807
6.400;-2.890647;-0.571143
6.410;-2.888462;-0.571748
6.420;-2.887094;-0.573060
6.430;-2.886352;-0.574246
6.440;-2.885967;-0.574490
6.450;-2.885718;-0.573263
6.460;-2.885490;-0.570484
6.470;-2.885230;-0.566512
6.480;-2.884864;-0.561992
6.490;-2.884229;-0.557615
6.500;-2.883105;-0.553907
6.510;-2.881320;-0.551128
6.520;-2.878881;-0.549302
6.530;-2.876037;-0.548320
6.540;-2.873250;-0.548038
6.550;-2.871068;-0.548304
6.560;-2.869955;-0.548904
6.570;-2.870152;-0.549514
6.580;-2.871642;-0.549702
6.590;-2.874208;-0.549042
6.600;-2.877550;-0.547278
6.610;-2.881378;-0.544436
6.620;-2.885466;-0.540826
6.630;-2.889655;-0.536934
6.640;-2.893878;-0.533250
6.650;-2.898191;-0.530112
6.660;-2.902815;-0.527584
6.670;-2.908105;-0.525429
6.680;-2.914442;-0.523211
6.690;-2.922097;-0.520498
6.700;-2.931129;-0.517079
6.710;-2.941377;-0.513049
6.720;-2.952545;-0.508714
6.730;-2.964351;-0.504376
6.740;-2.976648;-0.500164
6.750;-2.989461;-0.496010
6.760;-3.002901;-0.491760
6.770;-3.017034;-0.487316
6.780;-3.031777;-0.482728
6.790;-3.046860;-0.478168
6.800;-3.061872;-0.473840
6.810;-3.076368;-0.469861
6.820;-3.090003;-0.466186
6.830;-3.102667;-0.462610
6.840;-3.114545;-0.458860
6.850;-3.126075;-0.454735
6.860;-3.137784;-0.450213
6.870;-3.150108;-0.445458
6.880;-3.163238;-0.440725
6.890;-3.177087;-0.436232
6.900;-3.191355;-0.432085
6.910;-3.205651;-0.428292
6.920;-3.219592;-0.424846
6.930;-3.232856;-0.421791
6.940;-3.245192;-0.419247
6.950;-3.256440;-0.417390
6.960;-3.266568;-0.416396
6.970;-3.275708;-0.416352
6.980;-3.284149;-0.417181
6.990;-3.292279;-0.418610
7.000;-3.300461;-0.420238
7.010;-3.308888;-0.421668
7.020;-3.317474;-0.422651
7.030;-3.325863;-0.423172
7.040;-3.333566;-0.423452
7.050;-3.340173;-0.423846
7.060;-3.345549;-0.424678
7.070;-3.349908;-0.426088
7.080;-3.353730;-0.427975
7.090;-3.357559;-0.430068
7.100;-3.361787;-0.432108
7.110;-3.366538;-0.434004
7.120;-3.371684;-0.435883
7.130;-3.376977;-0.437995
7.140;-3.382210;-0.440529
7.150;-3.387330;-0.443450
7.160;-3.392434;-0.446457
7.170;-3.397697;-0.449135
7.180;-3.403281;-0.451199
7.190;-3.409288;-0.452717
7.200;-3.415763;-0.454125
7.210;-3.422706;-0.456046
7.220;-3.430059;-0.458988
7.230;-3.437672;-0.463079
7.240;-3.445286;-0.467985
7.250;-3.452565;-0.473043
7.260;-3.459183;-0.477536
7.270;-3.464926;-0.480980
7.280;-3.469761;-0.483271
7.290;-3.473827;-0.484673
7.300;-3.477371;-0.485674
7.310;-3.480655;-0.486820
7.320;-3.483868;-0.488556
7.330;-3.487057;-0.491107
7.340;-3.490105;-0.494404
7.350;-3.492751;-0.498077
7.360;-3.494687;-0.501563
7.370;-3.495686;-0.504300
7.380;-3.495737;-0.505963
7.390;-3.495100;-0.506629
7.400;-3.494257;-0.506775
7.410;-3.493763;-0.507102
7.420;-3.494042;-0.508219
7.430;-3.495232;-0.510358
7.440;-3.497113;-0.513261
7.450;-3.499176;-0.516314
7.460;-3.500786;-0.518834
7.470;-3.501380;-0.520359
7.480;-3.500622;-0.520796
7.490;-3.498504;-0.520408
7.500;-3.495350;-0.519673
7.510;-3.491745;-0.519084
7.520;-3.488384;-0.518965
7.530;-3.485895;-0.519378
7.540;-3.484664;-0.520123
7.550;-3.484743;-0.520824
7.560;-3.485863;-0.521049
7.570;-3.487545;-0.520419
7.580;-3.489265;-0.518706
7.590;-3.490582;-0.515894
7.600;-3.491202;-0.512216
7.610;-3.490968;-0.508136
7.620;-3.489846;-0.504271
7.630;-3.487927;-0.501240
7.640;-3.485463;-0.499484
7.650;-3.482876;-0.499128
7.660;-3.480705;-0.499958
7.670;-3.479477;-0.501541
7.680;-3.479563;-0.503424
