Time[s];COPx[cm];COPy[cm]
0.010;-1.444650;-0.483717
0.020;-1.450039;-0.484655
0.030;-1.454751;-0.486648
0.040;-1.458258;-0.490354
0.050;-1.460323;-0.495800
0.060;-1.461030;-0.502464
0.070;-1.460706;-0.509564
0.080;-1.459779;-0.516422
0.090;-1.458627;-0.522723
0.100;-1.457474;-0.528601
0.110;-1.456362;-0.534549
0.120;-1.455190;-0.541219
0.130;-1.453781;-0.549222
0.140;-1.451929;-0.558984
0.150;-1.449440;-0.570681
0.160;-1.446148;-0.584236
0.170;-1.441957;-0.599376
0.180;-1.436912;-0.615695
0.190;-1.431261;-0.632726
0.200;-1.425477;-0.649966
0.210;-1.420193;-0.666900
0.220;-1.416047;-0.683049
0.230;-1.413496;-0.698073
0.240;-1.412654;-0.711883
0.250;-1.413244;-0.724683
0.260;-1.414671;-0.736901
0.270;-1.416216;-0.749022
0.280;-1.417255;-0.761407
0.290;-1.417445;-0.774177
0.300;-1.416785;-0.787206
0.310;-1.415552;-0.800202
0.320;-1.414154;-0.812852
0.330;-1.412978;-0.824955
0.340;-1.412304;-0.836494
0.350;-1.412309;-0.847625
0.360;-1.413115;-0.858599
0.370;-1.414832;-0.869652
0.380;-1.417546;-0.880940
0.390;-1.421246;-0.892517
0.400;-1.425764;-0.904368
0.410;-1.430767;-0.916444
0.420;-1.435822;-0.928689
0.430;-1.440508;-0.941040
0.440;-1.444522;-0.953426
0.450;-1.447725;-0.965740
0.460;-1.450115;-0.977818
0.470;-1.451736;-0.989403
0.480;-1.452585;-1.000154
0.490;-1.452561;-1.009725
0.500;-1.451494;-1.017897
0.510;-1.449233;-1.024698
0.520;-1.445739;-1.030432
0.530;-1.441134;-1.035585
0.540;-1.435665;-1.040656
0.550;-1.429601;-1.045992
0.560;-1.423124;-1.051678
0.570;-1.416268;-1.057544
0.580;-1.408953;-1.063270
0.590;-1.401053;-1.068545
0.600;-1.392465;-1.073214
0.610;-1.383139;-1.077317
0.620;-1.373081;-1.081023
0.630;-1.362342;-1.084503
0.640;-1.351013;-1.087814
0.650;-1.339230;-1.090853
0.660;-1.327186;-1.093387
0.670;-1.315127;-1.095135
0.680;-1.303313;-1.095851
0.690;-1.291946;-1.095398
0.700;-1.281079;-1.093769
0.710;-1.270575;-1.091102
0.720;-1.260147;-1.087668
0.730;-1.249491;-1.083843
0.740;-1.238429;-1.080064
0.750;-1.227005;-1.076759
0.760;-1.215483;-1.074278
0.770;-1.204268;-1.072853
0.780;-1.193802;-1.072570
0.790;-1.184466;-1.073358
0.800;-1.176532;-1.074991
0.810;-1.170150;-1.077106
0.820;-1.165361;-1.079254
0.830;-1.162092;-1.080987
0.840;-1.160155;-1.081955
0.850;-1.159267;-1.081991
0.860;-1.159131;-1.081151
0.870;-1.159529;-1.079700
0.880;-1.160400;-1.078006
0.890;-1.161805;-1.076407
0.900;-1.163803;-1.075093
0.910;-1.166289;-1.074074
0.920;-1.168897;-1.073225
0.930;-1.171036;-1.072381
0.940;-1.172071;-1.071432
0.950;-1.171541;-1.070380
0.960;-1.169341;-1.069345
0.970;-1.165758;-1.068510
0.980;-1.161333;-1.068010
0.990;-1.156617;-1.067835
1.000;-1.151928;-1.067779
1.010;-1.147233;-1.067465
1.020;-1.142193;-1.066455
1.030;-1.136348;-1.064400
1.040;-1.129324;-1.061171
1.050;-1.121017;-1.056909
1.060;-1.111689;-1.051987
1.070;-1.101960;-1.046888
1.080;-1.092689;-1.042022
1.090;-1.084731;-1.037579
1.100;-1.078671;-1.033463
1.110;-1.074625;-1.029363
1.120;-1.072177;-1.024910
1.130;-1.070525;-1.019834
1.140;-1.068743;-1.014068
1.150;-1.066104;-1.007771
1.160;-1.062292;-1.001289
1.170;-1.057471;-0.995058
1.180;-1.052197;-0.989462
1.190;-1.047226;-0.984684
1.200;-1.043285;-0.980608
1.210;-1.040849;-0.976830
1.220;-1.039978;-0.972776
1.230;-1.040292;-0.967892
1.240;-1.041093;-0.961859
1.250;-1.041636;-0.954740
1.260;-1.041403;-0.946989
1.270;-1.040277;-0.939290
1.280;-1.038541;-0.932255
1.290;-1.036704;-0.926108
1.300;-1.035259;-0.920552
1.310;-1.034466;-0.914891
1.320;-1.034250;-0.908380
1.330;-1.034273;-0.900606
1.340;-1.034109;-0.891685
1.350;-1.033453;-0.882194
1.360;-1.032249;-0.872889
1.370;-1.030698;-0.864395
1.380;-1.029161;-0.856999
1.390;-1.028001;-0.850624
1.400;-1.027466;-0.844933
1.410;-1.027653;-0.839486
1.420;-1.028540;-0.833897
1.430;-1.030052;-0.827948
1.440;-1.032093;-0.821654
1.450;-1.034539;-0.815240
1.460;-1.037237;-0.809030
1.470;-1.040013;-0.803289
1.480;-1.042733;-0.798099
1.490;-1.045379;-0.793320
1.500;-1.048089;-0.788688
1.510;-1.051121;-0.783979
1.520;-1.054741;-0.779180
1.530;-1.059107;-0.774555
1.540;-1.064214;-0.770577
1.550;-1.069907;-0.767722
1.560;-1.075965;-0.766234
1.570;-1.082190;-0.765976
1.580;-1.088489;-0.766456
1.590;-1.094908;-0.767011
1.600;-1.101593;-0.767045
1.610;-1.108677;-0.766227
1.620;-1.116161;-0.764566
1.630;-1.123849;-0.762367
1.640;-1.131405;-0.760109
1.650;-1.138507;-0.758277
1.660;-1.144991;-0.757216
1.670;-1.150900;-0.757052
1.680;-1.156402;-0.757708
1.690;-1.161669;-0.758990
1.700;-1.166806;-0.760675
1.710;-1.171873;-0.762571
1.720;-1.176967;-0.764557
1.730;-1.182295;-0.766606
1.740;-1.188191;-0.768780
1.750;-1.195062;-0.771203
1.760;-1.203292;-0.774000
1.770;-1.213144;-0.777246
1.780;-1.224701;-0.780940
1.790;-1.237860;-0.784999
1.800;-1.252350;-0.789275
1.810;-1.267768;-0.793568
1.820;-1.283608;-0.797639
1.830;-1.299304;-0.801228
1.840;-1.314282;-0.804109
1.850;-1.328050;-0.806145
1.860;-1.340292;-0.807328
1.870;-1.350948;-0.807778
1.880;-1.360261;-0.807701
1.890;-1.368773;-0.807352
1.900;-1.377255;-0.807007
1.910;-1.386570;-0.806949
1.920;-1.397480;-0.807455
1.930;-1.410439;-0.808757
1.940;-1.425440;-0.810987
1.950;-1.441974;-0.814134
1.960;-1.459143;-0.818031
1.970;-1.475878;-0.822415
1.980;-1.491183;-0.827021
1.990;-1.504330;-0.831662
2.000;-1.514938;-0.836257
2.010;-1.522966;-0.840784
2.020;-1.528630;-0.845217
2.030;-1.532296;-0.849504
2.040;-1.534381;-0.853595
2.050;-1.535261;-0.857494
2.060;-1.535223;-0.861289
2.070;-1.534460;-0.865135
2.080;-1.533134;-0.869192
2.090;-1.531475;-0.873562
2.100;-1.529869;-0.878224
2.110;-1.528843;-0.883029
2.120;-1.528914;-0.887741
2.130;-1.530371;-0.892135
2.140;-1.533108;-0.896081
2.150;-1.536614;-0.899601
2.160;-1.540134;-0.902834
2.170;-1.542936;-0.905952
2.180;-1.544534;-0.909053
2.190;-1.544787;-0.912095
2.200;-1.543856;-0.914923
2.210;-1.542060;-0.917359
2.220;-1.539724;-0.919342
2.230;-1.537080;-0.921019
2.240;-1.534254;-0.922725
2.250;-1.531332;-0.924856
2.260;-1.528427;-0.927695
2.270;-1.525734;-0.931311
2.280;-1.523528;-0.935581
2.290;-1.522104;-0.940290
2.300;-1.521676;-0.945233
2.310;-1.522257;-0.950268
2.320;-1.523565;-0.955311
2.330;-1.525027;-0.960297
2.340;-1.525925;-0.965126
2.350;-1.525651;-0.969628
2.360;-1.523970;-0.973562
2.370;-1.521138;-0.976667
2.380;-1.517812;-0.978743
2.390;-1.514769;-0.979754
2.400;-1.512586;-0.979886
2.410;-1.511430;-0.979562
2.420;-1.511037;-0.979379
2.430;-1.510869;-0.980006
2.440;-1.510346;-0.982027
2.450;-1.509060;-0.985762
2.460;-1.506925;-0.991150
2.470;-1.504215;-0.997750
2.480;-1.501478;-1.004901
2.490;-1.499334;-1.011934
2.500;-1.498227;-1.018355
2.510;-1.498227;-1.023912
2.520;-1.498954;-1.028573
2.530;-1.499690;-1.032426
2.540;-1.499620;-1.035584
2.550;-1.498110;-1.038105
2.560;-1.494899;-1.039984
2.570;-1.490154;-1.041198
2.580;-1.484387;-1.041800
2.590;-1.478305;-1.041986
2.600;-1.472646;-1.042084
2.610;-1.468019;-1.042428
2.620;-1.464768;-1.043205
2.630;-1.462903;-1.044386
2.640;-1.462134;-1.045787
2.650;-1.462016;-1.047213
2.660;-1.462141;-1.048563
2.670;-1.462288;-1.049837
2.680;-1.462465;-1.051079
2.690;-1.462828;-1.052329
2.700;-1.463512;-1.053622
2.710;-1.464482;-1.054990
2.720;-1.465468;-1.056467
2.730;-1.466041;-1.058070
2.740;-1.465772;-1.059758
2.750;-1.464400;-1.061394
2.760;-1.461918;-1.062727
2.770;-1.458547;-1.063424
2.780;-1.454633;-1.063159
2.790;-1.450498;-1.061738
2.800;-1.446324;-1.059204
2.810;-1.442084;-1.055840
2.820;-1.437567;-1.052083
2.830;-1.432463;-1.048368
2.840;-1.426498;-1.045006
2.850;-1.419549;-1.042168
2.860;-1.411706;-1.039940
2.870;-1.403263;-1.038393
2.880;-1.394673;-1.037588
2.890;-1.386462;-1.037531
2.900;-1.379109;-1.038125
2.910;-1.372911;-1.039126
2.920;-1.367862;-1.040149
2.930;-1.363629;-1.040713
2.940;-1.359675;-1.040376
2.950;-1.355467;-1.038903
2.960;-1.350680;-1.036380
2.970;-1.345269;-1.033211
2.980;-1.339400;-1.029999
2.990;-1.333311;-1.027353
3.000;-1.327202;-1.025704
3.010;-1.321204;-1.025175
3.020;-1.315409;-1.025566
3.030;-1.309926;-1.026454
3.040;-1.304890;-1.027355
3.050;-1.300409;-1.027876
3.060;-1.296443;-1.027798
3.070;-1.292705;-1.027109
3.080;-1.288627;-1.025975
3.090;-1.283472;-1.024662
3.100;-1.276546;-1.023409
3.110;-1.267448;-1.022322
3.120;-1.256247;-1.021335
3.130;-1.243495;-1.020269
3.140;-1.230073;-1.018940
3.150;-1.216899;-1.017258
3.160;-1.204610;-1.015262
3.170;-1.193344;-1.013082
3.180;-1.182725;-1.010865
3.190;-1.172047;-1.008709
3.200;-1.160585;-1.006641
3.210;-1.147892;-1.004620
3.220;-1.133971;-1.002581
3.230;-1.119288;-1.000485
3.240;-1.104614;-0.998337
3.250;-1.090779;-0.996163
3.260;-1.078421;-0.993940
3.270;-1.067821;-0.991541
3.280;-1.058881;-0.988715
3.290;-1.051236;-0.985172
3.300;-1.044426;-0.980721
3.310;-1.038045;-0.975369
3.320;-1.031809;-0.969325
3.330;-1.025531;-0.962875
3.340;-1.019048;-0.956247
3.350;-1.012184;-0.949549
3.360;-1.004784;-0.942806
3.370;-0.996814;-0.936057
3.380;-0.988471;-0.929403
3.390;-0.980245;-0.923002
3.400;-0.972878;-0.916994
3.410;-0.967204;-0.911434
3.420;-0.963887;-0.906246
3.430;-0.963179;-0.901230
3.440;-0.964795;-0.896105
3.450;-0.967972;-0.890582
3.460;-0.971690;-0.884437
3.470;-0.974966;-0.877573
3.480;-0.977132;-0.870058
3.490;-0.978003;-0.862105
3.500;-0.977899;-0.854024
3.510;-0.977483;-0.846126
3.520;-0.977505;-0.838630
3.530;-0.978535;-0.831588
3.540;-0.980814;-0.824878
3.550;-0.984243;-0.818268
3.560;-0.988512;-0.811530
3.570;-0.993286;-0.804560
3.580;-0.998361;-0.797436
3.590;-1.003712;-0.790387
3.600;-1.009406;-0.783687
3.610;-1.015454;-0.777549
3.620;-1.021705;-0.772068
3.630;-1.027873;-0.767218
3.640;-1.033664;-0.762894
3.650;-1.038924;-0.758970
3.660;-1.043689;-0.755339
3.670;-1.048116;-0.751928
3.680;-1.052355;-0.748688
3.690;-1.056449;-0.745575
3.700;-1.060328;-0.742538
3.710;-1.063883;-0.739525
3.720;-1.067045;-0.736476
3.730;-1.069836;-0.733324
3.740;-1.072372;-0.730002
3.750;-1.074827;-0.726462
3.760;-1.077393;-0.722688
3.770;-1.080247;-0.718687
3.780;-1.083521;-0.714455
3.790;-1.087258;-0.709972
3.800;-1.091360;-0.705228
3.810;-1.095548;-0.700271
3.820;-1.099412;-0.695234
3.830;-1.102546;-0.690298
3.840;-1.104724;-0.685616
3.850;-1.106039;-0.681252
3.860;-1.106908;-0.677181
3.870;-1.107936;-0.673360
3.880;-1.109667;-0.669831
3.890;-1.112340;-0.666779
3.900;-1.115773;-0.664539
3.910;-1.119422;-0.663509
3.920;-1.122621;-0.664023
3.930;-1.124866;-0.666204
3.940;-1.126035;-0.669865
3.950;-1.126438;-0.674511
3.960;-1.126706;-0.679446
3.970;-1.127565;-0.683960
3.980;-1.129595;-0.687524
3.990;-1.133042;-0.689921
4.000;-1.137741;-0.691258
4.010;-1.143170;-0.691840
4.020;-1.148595;-0.691974
4.030;-1.153266;-0.691816
4.040;-1.156618;-0.691356
4.050;-1.158413;-0.690511
4.060;-1.158800;-0.689275
4.070;-1.158268;-0.687802
4.080;-1.157508;-0.686392
4.090;-1.157212;-0.685407
4.100;-1.157896;-0.685154
4.110;-1.159799;-0.685826
4.120;-1.162877;-0.687481
4.130;-1.166873;-0.690052
4.140;-1.171417;-0.693358
4.150;-1.176119;-0.697131
4.160;-1.180627;-0.701073
4.170;-1.184642;-0.704950
4.180;-1.187918;-0.708676
4.190;-1.190262;-0.712338
4.200;-1.191554;-0.716138
4.210;-1.191776;-0.720279
4.220;-1.191041;-0.724848
4.230;-1.189606;-0.729757
4.240;-1.187864;-0.734763
4.250;-1.186290;-0.739568
4.260;-1.185352;-0.743927
4.270;-1.185408;-0.747734
4.280;-1.186645;-0.751037
4.290;-1.189063;-0.753996
4.300;-1.192495;-0.756803
4.310;-1.196651;-0.759605
4.320;-1.201149;-0.762482
4.330;-1.205566;-0.765457
4.340;-1.209481;-0.768563
4.350;-1.212528;-0.771890
4.360;-1.214460;-0.775599
4.370;-1.215195;-0.779887
4.380;-1.214847;-0.784918
4.390;-1.213707;-0.790767
4.400;-1.212211;-0.797402
4.410;-1.210877;-0.804704
4.420;-1.210237;-0.812497
4.430;-1.210751;-0.820572
4.440;-1.212728;-0.828698
4.450;-1.216271;-0.836629
4.460;-1.221247;-0.844143
4.470;-1.227278;-0.851109
4.480;-1.233789;-0.857554
4.490;-1.240117;-0.863683
4.500;-1.245674;-0.869832
4.510;-1.250085;-0.876349
4.520;-1.253260;-0.883440
4.530;-1.255363;-0.891047
4.540;-1.256744;-0.898829
4.550;-1.257848;-0.906286
4.560;-1.259152;-0.912943
4.570;-1.261106;-0.918521
4.580;-1.264103;-0.923004
4.590;-1.268452;-0.926626
4.600;-1.274337;-0.929818
4.610;-1.281760;-0.933143
4.620;-1.290480;-0.937200
4.630;-1.299998;-0.942499
4.640;-1.309623;-0.949330
4.650;-1.318627;-0.957667
4.660;-1.326431;-0.967170
4.670;-1.332772;-0.977250
4.680;-1.337762;-0.987206
4.690;-1.341845;-0.996384
4.700;-1.345659;-1.004331
4.710;-1.349837;-1.010905
4.720;-1.354824;-1.016291
4.730;-1.360757;-1.020911
4.740;-1.367449;-1.025229
4.750;-1.374472;-1.029549
4.760;-1.381310;-1.033869
4.770;-1.387529;-1.037911
4.780;-1.392907;-1.041298
4.790;-1.397485;-1.043790
4.800;-1.401531;-1.045430
4.810;-1.405459;-1.046507
4.820;-1.409712;-1.047365
4.830;-1.414653;-1.048208
4.840;-1.420484;-1.049026
4.850;-1.427210;-1.049661
4.860;-1.434676;-1.049946
4.870;-1.442628;-1.049823
4.880;-1.450792;-1.049379
4.890;-1.458937;-1.048821
4.900;-1.466943;-1.048432
4.910;-1.474831;-1.048531
4.920;-1.482777;-1.049424
4.930;-1.491080;-1.051322
4.940;-1.500093;-1.054245
4.950;-1.510108;-1.057960
4.960;-1.521250;-1.062010
4.970;-1.533405;-1.065830
4.980;-1.546218;-1.068900
4.990;-1.559174;-1.070871
5.000;-1.571740;-1.071621
5.010;-1.583524;-1.071262
5.020;-1.594414;-1.070114
5.030;-1.604613;-1.068635
5.040;-1.614553;-1.067299
5.050;-1.624691;-1.066425
5.060;-1.635292;-1.066035
5.070;-1.646288;-1.065842
5.080;-1.657280;-1.065361
5.090;-1.667628;-1.064104
5.100;-1.676616;-1.061776
5.110;-1.683606;-1.058412
5.120;-1.688168;-1.054415
5.130;-1.690168;-1.050477
5.140;-1.689798;-1.047391
5.150;-1.687551;-1.045799
5.160;-1.684138;-1.045957
5.170;-1.680337;-1.047629
5.180;-1.676817;-1.050147
5.190;-1.673983;-1.052650
5.200;-1.671895;-1.054369
5.210;-1.670319;-1.054878
5.220;-1.668877;-1.054187
5.230;-1.667258;-1.052689
5.240;-1.665368;-1.050971
5.250;-1.663374;-1.049587
5.260;-1.661597;-1.048872
5.270;-1.660344;-1.048859
5.280;-1.659756;-1.049309
5.290;-1.659762;-1.049833
5.300;-1.660147;-1.050049
5.310;-1.660676;-1.049700
5.320;-1.661195;-1.048702
5.330;-1.661653;-1.047134
5.340;-1.662049;-1.045192
5.350;-1.662374;-1.043144
5.360;-1.662578;-1.041296
5.370;-1.662576;-1.039939
5.380;-1.662262;-1.039311
5.390;-1.661512;-1.039545
5.400;-1.660204;-1.040650
5.410;-1.658235;-1.042504
5.420;-1.655551;-1.044879
5.430;-1.652172;-1.047473
5.440;-1.648217;-1.049958
5.450;-1.643898;-1.052027
5.460;-1.639488;-1.053471
5.470;-1.635263;-1.054250
5.480;-1.631436;-1.054561
5.490;-1.628113;-1.054817
5.500;-1.625276;-1.055534
5.510;-1.622819;-1.057115
5.520;-1.620613;-1.059664
5.530;-1.618562;-1.062904
5.540;-1.616626;-1.066264
5.550;-1.614809;-1.069081
5.560;-1.613135;-1.070826
5.570;-1.611615;-1.071261
5.580;-1.610211;-1.070460
5.590;-1.608828;-1.068717
5.600;-1.607333;-1.066413
5.610;-1.605612;-1.063912
5.620;-1.603620;-1.061536
5.630;-1.601404;-1.059585
5.640;-1.599088;-1.058341
5.650;-1.596836;-1.058023
5.660;-1.594836;-1.058691
5.670;-1.593290;-1.060180
5.680;-1.592389;-1.062115
5.690;-1.592275;-1.064015
5.700;-1.593007;-1.065436
5.710;-1.594565;-1.066069
5.720;-1.596873;-1.065788
5.730;-1.599837;-1.064630
5.740;-1.603372;-1.062733
5.750;-1.607419;-1.060264
5.760;-1.611924;-1.057381
5.770;-1.616777;-1.054235
5.780;-1.621747;-1.051005
5.790;-1.626480;-1.047899
5.800;-1.630578;-1.045098
5.810;-1.633737;-1.042674
5.820;-1.635875;-1.040553
5.830;-1.637176;-1.038547
5.840;-1.638024;-1.036471
5.850;-1.638867;-1.034231
5.860;-1.640058;-1.031848
5.870;-1.641739;-1.029391
5.880;-1.643819;-1.026882
5.890;-1.646039;-1.024241
5.900;-1.648100;-1.021308
5.910;-1.649805;-1.017921
5.920;-1.651122;-1.014018
5.930;-1.652175;-1.009716
5.940;-1.653153;-1.005319
5.950;-1.654224;-1.001263
5.960;-1.655488;-0.997981
5.970;-1.656931;-0.995745
5.980;-1.658396;-0.994531
5.990;-1.659566;-0.993975
6.000;-1.659996;-0.993439
6.010;-1.659208;-0.992211
6.020;-1.656819;-0.989760
6.030;-1.652659;-0.985967
6.040;-1.646817;-0.981231
6.050;-1.639615;-0.976374
6.060;-1.631503;-0.972361
6.070;-1.622945;-0.969964
6.080;-1.614331;-0.969499
6.090;-1.605932;-0.970756
6.100;-1.597878;-0.973136
6.110;-1.590138;-0.975903
6.120;-1.582532;-0.978433
6.130;-1.574779;-0.980373
6.140;-1.566595;-0.981653
6.150;-1.557789;-0.982359
6.160;-1.548325;-0.982563
6.170;-1.538307;-0.982184
6.180;-1.527912;-0.980999
6.190;-1.517313;-0.978753
6.200;-1.506643;-0.975310
6.210;-1.496024;-0.970739
6.220;-1.485625;-0.965321
6.230;-1.475679;-0.959492
6.240;-1.466439;-0.953772
6.250;-1.458056;-0.948684
6.260;-1.450497;-0.944661
6.270;-1.443533;-0.941967
6.280;-1.436822;-0.940655
6.290;-1.430007;-0.940581
6.300;-1.422798;-0.941485
6.310;-1.415010;-0.943075
6.320;-1.406598;-0.945089
6.330;-1.397676;-0.947298
6.340;-1.388505;-0.949502
6.350;-1.379425;-0.951547
6.360;-1.370751;-0.953348
6.370;-1.362672;-0.954905
6.380;-1.355234;-0.956268
6.390;-1.348385;-0.957466
6.400;-1.342068;-0.958454
6.410;-1.336262;-0.959100
6.420;-1.330965;-0.959218
6.430;-1.326108;-0.958640
6.440;-1.321486;-0.957286
6.450;-1.316759;-0.955231
6.460;-1.311542;-0.952727
6.470;-1.305546;-0.950172
6.480;-1.298705;-0.947996
6.490;-1.291226;-0.946505
6.500;-1.283543;-0.945764
6.510;-1.276189;-0.945557
6.520;-1.269657;-0.945456
6.530;-1.264292;-0.944972
6.540;-1.260258;-0.943741
6.550;-1.257558;-0.941678
6.560;-1.256098;-0.939044
6.570;-1.255723;-0.936388
6.580;-1.256247;-0.934392
6.590;-1.257453;-0.933676
6.600;-1.259126;-0.934622
6.610;-1.261103;-0.937260
6.620;-1.263345;-0.941249
6.630;-1.265968;-0.945949
6.640;-1.269206;-0.950588
6.650;-1.273307;-0.954464
6.660;-1.278418;-0.957129
6.670;-1.284509;-0.958489
6.680;-1.291374;-0.958763
6.690;-1.298671;-0.958326
6.700;-1.306034;-0.957534
6.710;-1.313179;-0.956631
6.720;-1.319997;-0.955769
6.730;-1.326557;-0.955058
6.740;-1.333057;-0.954604
6.750;-1.339727;-0.954490
6.760;-1.346715;-0.954739
6.770;-1.353980;-0.955282
6.780;-1.361251;-0.956004
6.790;-1.368067;-0.956834
6.800;-1.373925;-0.957833
6.810;-1.378470;-0.959190
6.820;-1.381656;-0.961114
6.830;-1.383799;-0.963685
6.840;-1.385494;-0.966774
6.850;-1.387438;-0.970075
6.860;-1.390237;-0.973210
6.870;-1.394268;-0.975834
6.880;-1.399601;-0.977703
6.890;-1.405996;-0.978713
6.900;-1.412932;-0.978913
6.910;-1.419683;-0.978475
6.920;-1.425435;-0.977592
6.930;-1.429449;-0.976367
6.940;-1.431236;-0.974746
6.950;-1.430697;-0.972591
6.960;-1.428163;-0.969839
6.970;-1.424301;-0.966651
6.980;-1.419932;-0.963425
6.990;-1.415823;-0.960621
7.000;-1.412526;-0.958512
7.010;-1.410296;-0.956998
7.020;-1.409095;-0.955604
7.030;-1.408664;-0.953688
7.040;-1.408624;-0.950761
7.050;-1.408593;-0.946757
7.060;-1.408279;-0.942097
7.070;-1.407553;-0.937506
7.080;-1.406471;-0.933692
7.090;-1.405242;-0.931057
7.100;-1.404135;-0.929591
7.110;-1.403373;-0.928945
7.120;-1.403048;-0.928618
7.130;-1.403119;-0.928149
7.140;-1.403455;-0.927245
7.150;-1.403899;-0.925824
7.160;-1.404290;-0.923974
7.170;-1.404480;-0.921876
7.180;-1.404347;-0.919730
7.190;-1.403819;-0.917699
7.200;-1.402888;-0.915904
7.210;-1.401585;-0.914436
7.220;-1.399949;-0.913391
7.230;-1.397995;-0.912865
7.240;-1.395706;-0.912931
7.250;-1.393027;-0.913573
7.260;-1.389871;-0.914640
7.270;-1.386154;-0.915866
7.280;-1.381865;-0.916966
7.290;-1.377152;-0.917758
7.300;-1.372368;-0.918237
7.310;-1.368025;-0.918555
7.320;-1.364671;-0.918938
7.330;-1.362733;-0.919603
7.340;-1.362413;-0.920686
7.350;-1.363649;-0.922223
7.360;-1.366149;-0.924155
7.370;-1.369467;-0.926349
7.380;-1.373118;-0.928614
7.390;-1.376716;-0.930701
7.400;-1.380071;-0.932333
7.410;-1.383203;-0.933266
7.420;-1.386262;-0.933373
7.430;-1.389409;-0.932690
7.440;-1.392742;-0.931411
7.450;-1.396280;-0.929832
7.460;-1.400010;-0.928276
7.470;-1.403924;-0.927034
7.480;-1.408011;-0.926333
7.490;-1.412230;-0.926332
7.500;-1.416476;-0.927109
7.510;-1.420562;-0.928631
7.520;-1.424200;-0.930740
7.530;-1.427014;-0.933177
7.540;-1.428575;-0.935680
7.550;-1.428484;-0.938085
7.560;-1.426475;-0.940396
7.570;-1.422519;-0.942780
7.580;-1.416864;-0.945505
7.590;-1.410001;-0.948859
7.600;-1.402536;-0.953078
7.610;-1.395025;-0.958271
7.620;-1.387845;-0.964354
7.630;-1.381132;-0.971016
7.640;-1.374792;-0.977737
7.650;-1.368553;-0.983875
7.660;-1.362027;-0.988813
7.670;-1.354802;-0.992145
7.680;-1.346565;-0.993846
