Time[s];COPx[cm];COPy[cm]
0.010;0.430088;1.735125
0.020;0.416113;1.736592
0.030;0.402727;1.737396
0.040;0.390603;1.737181
0.050;0.380425;1.735996
0.060;0.372790;1.734231
0.070;0.368056;1.732421
0.080;0.366185;1.731037
0.090;0.366676;1.730360
0.100;0.368613;1.730473
0.110;0.370859;1.731378
0.120;0.372318;1.733151
0.130;0.372173;1.736043
0.140;0.370015;1.740455
0.150;0.365853;1.746804
0.160;0.360028;1.755347
0.170;0.353052;1.766057
0.180;0.345413;1.778594
0.190;0.337400;1.792396
0.200;0.329019;1.806853
0.210;0.320032;1.821501
0.220;0.310091;1.836149
0.230;0.298894;1.850876
0.240;0.286305;1.865891
0.250;0.272447;1.881350
0.260;0.257724;1.897221
0.270;0.242777;1.913266
0.280;0.228335;1.929126
0.290;0.215024;1.944437
0.300;0.203208;1.958931
0.310;0.192946;1.972463
0.320;0.184057;1.985002
0.330;0.176241;1.996581
0.340;0.169200;2.007261
0.350;0.162699;2.017093
0.360;0.156583;2.026069
0.370;0.150761;2.034078
0.380;0.145195;2.040897
0.390;0.139925;2.046246
0.400;0.135077;2.049896
0.410;0.130829;2.051753
0.420;0.127314;2.051885
0.430;0.124488;2.050497
0.440;0.122076;2.047859
0.450;0.119632;2.044237
0.460;0.116719;2.039861
0.470;0.113122;2.034933
0.480;0.109002;2.029665
0.490;0.104891;2.024314
0.500;0.101511;2.019165
0.510;0.099514;2.014490
0.520;0.099253;2.010475
0.530;0.100670;2.007174
0.540;0.103298;2.004472
0.550;0.106380;2.002091
0.560;0.109062;1.999614
0.570;0.110637;1.996559
0.580;0.110727;1.992508
0.590;0.109363;1.987280
0.600;0.106918;1.981073
0.610;0.103974;1.974479
0.620;0.101162;1.968347
0.630;0.099021;1.963568
0.640;0.097869;1.960859
0.650;0.097701;1.960638
0.660;0.098148;1.962961
0.670;0.098537;1.967503
0.680;0.098064;1.973602
0.690;0.096049;1.980385
0.700;0.092172;1.986994
0.710;0.086595;1.992831
0.720;0.079922;1.997727
0.730;0.072993;2.001943
0.740;0.066610;2.006027
0.750;0.061301;2.010576
0.760;0.057204;2.015985
0.770;0.054104;2.022260
0.780;0.051585;2.028952
0.790;0.049211;2.035283
0.800;0.046668;2.040424
0.810;0.043826;2.043816
0.820;0.040709;2.045395
0.830;0.037401;2.045622
0.840;0.033947;2.045309
0.850;0.030291;2.045342
0.860;0.026289;2.046387
0.870;0.021767;2.048672
0.880;0.016614;2.051920
0.890;0.010866;2.055471
0.900;0.004759;2.058545
0.910;-0.001244;2.060539
0.920;-0.006504;2.061233
0.930;-0.010311;2.060795
0.940;-0.012034;2.059615
0.950;-0.011277;2.058037
0.960;-0.007998;2.056163
0.970;-0.002547;2.053815
0.980;0.004410;2.050670
0.990;0.012065;2.046469
1.000;0.019664;2.041189
1.010;0.026679;2.035082
1.020;0.032902;2.028568
1.030;0.038483;2.022090
1.040;0.043908;2.016012
1.050;0.049896;2.010605
1.060;0.057211;2.006064
1.070;0.066430;2.002504
1.080;0.077758;1.999917
1.090;0.090950;1.998127
1.100;0.105379;1.996797
1.110;0.120228;1.995513
1.120;0.134739;1.993897
1.130;0.148400;1.991731
1.140;0.161002;1.989039
1.150;0.172551;1.986127
1.160;0.183125;1.983526
1.170;0.192785;1.981843
1.180;0.201573;1.981549
1.190;0.209548;1.982820
1.200;0.216794;1.985513
1.210;0.223382;1.989296
1.220;0.229313;1.993826
1.230;0.234481;1.998864
1.240;0.238675;2.004268
1.250;0.241617;2.009903
1.260;0.243014;2.015542
1.270;0.242631;2.020837
1.280;0.240370;2.025392
1.290;0.236360;2.028912
1.300;0.231008;2.031343
1.310;0.224968;2.032912
1.320;0.219030;2.034029
1.330;0.213924;2.035102
1.340;0.210100;2.036389
1.350;0.207560;2.037974
1.360;0.205823;2.039863
1.370;0.204056;2.042101
1.380;0.201343;2.044832
1.390;0.196957;2.048272
1.400;0.190539;2.052632
1.410;0.182099;2.058037
1.420;0.171889;2.064486
1.430;0.160227;2.071846
1.440;0.147385;2.079882
1.450;0.133558;2.088279
1.460;0.118908;2.096684
1.470;0.103618;2.104735
1.480;0.087911;2.112123
1.490;0.072027;2.118664
1.500;0.056173;2.124385
1.510;0.040478;2.129596
1.520;0.024945;2.134905
1.530;0.009431;2.141120
1.540;-0.006310;2.149043
1.550;-0.022501;2.159193
1.560;-0.039202;2.171587
1.570;-0.056241;2.185645
1.580;-0.073294;2.200328
1.590;-0.090049;2.214443
1.600;-0.106367;2.227034
1.610;-0.122312;2.237669
1.620;-0.138057;2.246486
1.630;-0.153707;2.253982
1.640;-0.169149;2.260669
1.650;-0.183988;2.266778
1.660;-0.197591;2.272135
1.670;-0.209214;2.276255
1.680;-0.218156;2.278585
1.690;-0.223917;2.278782
1.700;-0.226295;2.276903
1.710;-0.225440;2.273422
1.720;-0.221797;2.269083
1.730;-0.215993;2.264644
1.740;-0.208663;2.260621
1.750;-0.200295;2.257168
1.760;-0.191137;2.254124
1.770;-0.181226;2.251211
1.780;-0.170503;2.248256
1.790;-0.158952;2.245317
1.800;-0.146681;2.242638
1.810;-0.133899;2.240475
1.820;-0.120849;2.238934
1.830;-0.107748;2.237917
1.840;-0.094754;2.237226
1.850;-0.081943;2.236742
1.860;-0.069310;2.236560
1.870;-0.056801;2.237006
1.880;-0.044395;2.238511
1.890;-0.032186;2.241415
1.900;-0.020422;2.245818
1.910;-0.009443;2.251558
1.920;0.000435;2.258320
1.930;0.009032;2.265776
1.940;0.016342;2.273657
1.950;0.022501;2.281720
1.960;0.027693;2.289679
1.970;0.032068;2.297183
1.980;0.035692;2.303884
1.990;0.038543;2.309560
2.000;0.040532;2.314229
2.010;0.041519;2.318166
2.020;0.041328;2.321830
2.030;0.039798;2.325710
2.040;0.036852;2.330192
2.050;0.032583;2.335473
2.060;0.027276;2.341527
2.070;0.021363;2.348117
2.080;0.015300;2.354835
2.090;0.009422;2.361202
2.100;0.003873;2.366788
2.110;-0.001348;2.371319
2.120;-0.006247;2.374715
2.130;-0.010671;2.377060
2.140;-0.014230;2.378523
2.150;-0.016327;2.379275
2.160;-0.016319;2.379429
2.170;-0.013728;2.379022
2.180;-0.008412;2.378025
2.190;-0.000612;2.376362
2.200;0.009116;2.373943
2.210;0.020026;2.370709
2.220;0.031303;2.366694
2.230;0.042177;2.362058
2.240;0.052041;2.357071
2.250;0.060569;2.352029
2.260;0.067779;2.347121
2.270;0.073977;2.342331
2.280;0.079612;2.337460
2.290;0.085115;2.332268
2.300;0.090785;2.326667
2.310;0.096753;2.320845
2.320;0.102986;2.315220
2.330;0.109319;2.310246
2.340;0.115481;2.306186
2.350;0.121137;2.302974
2.360;0.125932;2.300244
2.370;0.129509;2.297502
2.380;0.131516;2.294332
2.390;0.131601;2.290577
2.400;0.129459;2.286418
2.410;0.124914;2.282344
2.420;0.118012;2.279028
2.430;0.109091;2.277128
2.440;0.098767;2.277064
2.450;0.087829;2.278856
2.460;0.077068;2.282070
2.470;0.067101;2.285930
2.480;0.058261;2.289559
2.490;0.050584;2.292265
2.500;0.043892;2.293744
2.510;0.037919;2.294099
2.520;0.032426;2.293680
2.530;0.027283;2.292855
2.540;0.022492;2.291858
2.550;0.018180;2.290766
2.560;0.014524;2.289546
2.570;0.011658;2.288107
2.580;0.009555;2.286330
2.590;0.007971;2.284108
2.600;0.006473;2.281415
2.610;0.004579;2.278332
2.620;0.001938;2.275021
2.630;-0.001531;2.271624
2.640;-0.005612;2.268167
2.650;-0.009909;2.264512
2.660;-0.014041;2.260417
2.670;-0.017793;2.255663
2.680;-0.021129;2.250218
2.690;-0.024101;2.244324
2.700;-0.026713;2.238448
2.710;-0.028850;2.233088
2.720;-0.030288;2.228550
2.730;-0.030775;2.224815
2.740;-0.030114;2.221555
2.750;-0.028233;2.218282
2.760;-0.025226;2.214515
2.770;-0.021358;2.209902
2.780;-0.017041;2.204287
2.790;-0.012764;2.197737
2.800;-0.008983;2.190536
2.810;-0.006018;2.183133
2.820;-0.003999;2.176036
2.830;-0.002897;2.169696
2.840;-0.002617;2.164405
2.850;-0.003088;2.160240
2.860;-0.004320;2.157071
2.870;-0.006392;2.154642
2.880;-0.009416;2.152718
2.890;-0.013487;2.151204
2.900;-0.018632;2.150181
2.910;-0.024755;2.149810
2.920;-0.031610;2.150157
2.930;-0.038825;2.151058
2.940;-0.046006;2.152096
2.950;-0.052872;2.152714
2.960;-0.059326;2.152405
2.970;-0.065431;2.150881
2.980;-0.071300;2.148155
2.990;-0.076971;2.144511
3.000;-0.082316;2.140404
3.010;-0.087028;2.136339
3.020;-0.090704;2.132762
3.030;-0.093012;2.129992
3.040;-0.093879;2.128202
3.050;-0.093614;2.127440
3.060;-0.092889;2.127682
3.070;-0.092583;2.128876
3.080;-0.093539;2.130920
3.090;-0.096339;2.133605
3.100;-0.101161;2.136554
3.110;-0.107745;2.139218
3.120;-0.115442;2.140940
3.130;-0.123345;2.141094
3.140;-0.130447;2.139259
3.150;-0.135816;2.135369
3.160;-0.138762;2.129770
3.170;-0.138965;2.123150
3.180;-0.136528;2.116367
3.190;-0.131925;2.110218
3.200;-0.125859;2.105266
3.210;-0.119105;2.101753
3.220;-0.112344;2.099604
3.230;-0.106047;2.098457
3.240;-0.100425;2.097734
3.250;-0.095467;2.096754
3.260;-0.091057;2.094925
3.270;-0.087085;2.091921
3.280;-0.083497;2.087769
3.290;-0.080257;2.082788
3.300;-0.077312;2.077438
3.310;-0.074618;2.072178
3.320;-0.072207;2.067381
3.330;-0.070236;2.063326
3.340;-0.068961;2.060197
3.350;-0.068663;2.058071
3.360;-0.069575;2.056876
3.370;-0.071846;2.056402
3.380;-0.075507;2.056362
3.390;-0.080417;2.056531
3.400;-0.086195;2.056863
3.410;-0.092212;2.057531
3.420;-0.097684;2.058847
3.430;-0.101880;2.061078
3.440;-0.104341;2.064253
3.450;-0.105036;2.068042
3.460;-0.104353;2.071780
3.470;-0.102950;2.074649
3.480;-0.101515;2.075958
3.490;-0.100566;2.075413
3.500;-0.100325;2.073248
3.510;-0.100737;2.070135
3.520;-0.101588;2.066924
3.530;-0.102676;2.064363
3.540;-0.103928;2.062889
3.550;-0.105419;2.062552
3.560;-0.107289;2.063031
3.570;-0.109637;2.063712
3.580;-0.112468;2.063796
3.590;-0.115706;2.062442
3.600;-0.119255;2.058949
3.610;-0.123021;2.052945
3.620;-0.126903;2.044522
3.630;-0.130761;2.034224
3.640;-0.134402;2.022878
3.650;-0.137593;2.011327
3.660;-0.140079;2.000177
3.670;-0.141614;1.989634
3.680;-0.141993;1.979493
3.690;-0.141103;1.969257
3.700;-0.138960;1.958353
3.710;-0.135696;1.946377
3.720;-0.131492;1.933271
3.730;-0.126512;1.919358
3.740;-0.120857;1.905221
3.750;-0.114577;1.891512
3.760;-0.107698;1.878762
3.770;-0.100234;1.867280
3.780;-0.092181;1.857103
3.790;-0.083510;1.848005
3.800;-0.074185;1.839539
3.810;-0.064218;1.831156
3.820;-0.053724;1.822362
3.830;-0.042955;1.812881
3.840;-0.032280;1.802753
3.850;-0.022123;1.792316
3.860;-0.012847;1.782055
3.870;-0.004650;1.772394
3.880;0.002505;1.763540
3.890;0.008864;1.755479
3.900;0.014789;1.748100
3.910;0.020640;1.741348
3.920;0.026678;1.735309
3.930;0.032997;1.730193
3.940;0.039484;1.726243
3.950;0.045839;1.723647
3.960;0.051650;1.722455
3.970;0.056539;1.722557
3.980;0.060322;1.723701
3.990;0.063103;1.725561
4.000;0.065277;1.727819
4.010;0.067441;1.730238
4.020;0.070246;1.732716
4.030;0.074249;1.735306
4.040;0.079802;1.738190
4.050;0.086991;1.741577
4.060;0.095626;1.745564
4.070;0.105281;1.750014
4.080;0.115366;1.754523
4.090;0.125257;1.758487
4.100;0.134470;1.761273
4.110;0.142832;1.762432
4.120;0.150569;1.761881
4.130;0.158263;1.759977
4.140;0.166682;1.757441
4.150;0.176533;1.755164
4.160;0.188272;1.753967
4.170;0.202012;1.754419
4.180;0.217563;1.756757
4.190;0.234548;1.760923
4.200;0.252523;1.766630
4.210;0.271070;1.773430
4.220;0.289872;1.780765
4.230;0.308764;1.788046
4.240;0.327760;1.794776
4.250;0.347038;1.800690
4.260;0.366869;1.805813
4.270;0.387518;1.810400
4.280;0.409114;1.814756
4.290;0.431547;1.819073
4.300;0.454413;1.823349
4.310;0.477027;1.827427
4.320;0.498527;1.831110
4.330;0.518056;1.834283
4.340;0.534958;1.836988
4.350;0.548906;1.839424
4.360;0.559935;1.841855
4.370;0.568376;1.844448
4.380;0.574729;1.847144
4.390;0.579502;1.849634
4.400;0.583055;1.851490
4.410;0.585480;1.852369
4.420;0.586600;1.852165
4.430;0.586079;1.851036
4.440;0.583609;1.849274
4.450;0.579078;1.847128
4.460;0.572654;1.844675
4.470;0.564757;1.841836
4.480;0.555942;1.838509
4.490;0.546742;1.834712
4.500;0.537521;1.830640
4.510;0.528372;1.826585
4.520;0.519094;1.822800
4.530;0.509281;1.819403
4.540;0.498480;1.816389
4.550;0.486377;1.813730
4.560;0.472937;1.811475
4.570;0.458446;1.809796
4.580;0.443471;1.808943
4.590;0.428733;1.809145
4.600;0.414943;1.810484
4.610;0.402634;1.812789
4.620;0.392040;1.815566
4.630;0.383045;1.818037
4.640;0.375233;1.819326
4.650;0.368010;1.818748
4.660;0.360757;1.816069
4.670;0.352947;1.811611
4.680;0.344228;1.806150
4.690;0.334472;1.800664
4.700;0.323808;1.796026
4.710;0.312626;1.792771
4.720;0.301482;1.791014
4.730;0.290931;1.790522
4.740;0.281314;1.790893
4.750;0.272620;1.791728
4.760;0.264472;1.792758
4.770;0.256260;1.793877
4.780;0.247349;1.795122
4.790;0.237309;1.796611
4.800;0.226082;1.798484
4.810;0.214043;1.800872
4.820;0.201914;1.803891
4.830;0.190551;1.807596
4.840;0.180680;1.811923
4.850;0.172695;1.816633
4.860;0.166584;1.821320
4.870;0.161981;1.825495
4.880;0.158288;1.828733
4.890;0.154827;1.830830
4.900;0.150996;1.831892
4.910;0.146425;1.832305
4.920;0.141075;1.832592
4.930;0.135241;1.833250
4.940;0.129430;1.834646
4.950;0.124167;1.837025
4.960;0.119779;1.840557
4.970;0.116266;1.845366
4.980;0.113292;1.851480
4.990;0.110323;1.858749
5.000;0.106825;1.866806
5.010;0.102457;1.875144
5.020;0.097166;1.883275
5.030;0.091210;1.890893
5.040;0.085089;1.897960
5.050;0.079432;1.904674
5.060;0.074852;1.911329
5.070;0.071819;1.918139
5.080;0.070587;1.925123
5.090;0.071183;1.932094
5.100;0.073457;1.938767
5.110;0.077129;1.944888
5.120;0.081813;1.950352
5.130;0.087023;1.955254
5.140;0.092221;1.959873
5.150;0.096927;1.964582
5.160;0.100865;1.969719
5.170;0.104065;1.975483
5.180;0.106831;1.981913
5.190;0.109567;1.988947
5.200;0.112555;1.996483
5.210;0.115788;2.004388
5.220;0.118961;2.012467
5.230;0.121624;2.020422
5.240;0.123418;2.027872
5.250;0.124264;2.034435
5.260;0.124392;2.039839
5.270;0.124183;2.044006
5.280;0.123941;2.047073
5.290;0.123705;2.049365
5.300;0.123211;2.051365
5.310;0.122017;2.053653
5.320;0.119736;2.056792
5.330;0.116270;2.061155
5.340;0.111940;2.066790
5.350;0.107429;2.073402
5.360;0.103536;2.080506
5.370;0.100868;2.087641
5.380;0.099612;2.094556
5.390;0.099497;2.101261
5.400;0.099927;2.107948
5.410;0.100210;2.114834
5.420;0.099782;2.122019
5.430;0.098363;2.129423
5.440;0.095991;2.136813
5.450;0.092959;2.143884
5.460;0.089663;2.150352
5.470;0.086427;2.156051
5.480;0.083370;2.161016
5.490;0.080357;2.165510
5.500;0.077047;2.169998
5.510;0.073023;2.175026
5.520;0.067925;2.181058
5.530;0.061555;2.188315
5.540;0.053933;2.196693
5.550;0.045291;2.205772
5.560;0.036005;2.214961
5.570;0.026485;2.223704
5.580;0.017047;2.231687
5.590;0.007814;2.238947
5.600;-0.001307;2.245828
5.610;-0.010545;2.252820
5.620;-0.020094;2.260358
5.630;-0.029941;2.268683
5.640;-0.039783;2.277801
5.650;-0.049079;2.287511
5.660;-0.057226;2.297414
5.670;-0.063749;2.306893
5.680;-0.068413;2.315153
5.690;-0.071225;2.321396
5.700;-0.072330;2.325107
5.710;-0.071901;2.326309
5.720;-0.070074;2.325605
5.730;-0.066949;2.323970
5.740;-0.062628;2.322390
5.750;-0.057274;2.321550
5.760;-0.051149;2.321701
5.770;-0.044625;2.322721
5.780;-0.038155;2.324278
5.790;-0.032203;2.326008
5.800;-0.027163;2.327658
5.810;-0.023243;2.329188
5.820;-0.020388;2.330822
5.830;-0.018271;2.333038
5.840;-0.016427;2.336464
5.850;-0.014475;2.341697
5.860;-0.012318;2.349066
5.870;-0.010197;2.358454
5.880;-0.008530;2.369258
5.890;-0.007647;2.380536
5.900;-0.007582;2.391284
5.910;-0.008055;2.400741
5.920;-0.008649;2.408598
5.930;-0.009062;2.415033
5.940;-0.009278;2.420595
5.950;-0.009552;2.425992
5.960;-0.010236;2.431858
5.970;-0.011557;2.438568
5.980;-0.013485;2.446139
5.990;-0.015752;2.454224
6.000;-0.017991;2.462208
6.010;-0.019913;2.469383
6.020;-0.021455;2.475197
6.030;-0.022815;2.479482
6.040;-0.024369;2.482535
6.050;-0.026501;2.484998
6.060;-0.029435;2.487591
6.070;-0.033150;2.490870
6.080;-0.037417;2.495098
6.090;-0.041909;2.500252
6.100;-0.046338;2.506103
6.110;-0.050544;2.512318
6.120;-0.054510;2.518575
6.130;-0.058304;2.524634
6.140;-0.061975;2.530364
6.150;-0.065470;2.535725
6.160;-0.068629;2.540726
6.170;-0.071237;2.545387
6.180;-0.073126;2.549712
6.190;-0.074253;2.553689
6.200;-0.074687;2.557332
6.210;-0.074518;2.560698
6.220;-0.073731;2.563836
6.230;-0.072145;2.566669
6.240;-0.069475;2.568911
6.250;-0.065490;2.570097
6.260;-0.060155;2.569745
6.270;-0.053662;2.567602
6.280;-0.046348;2.563830
6.290;-0.038552;2.559021
6.300;-0.030490;2.554009
6.310;-0.022236;2.549569
6.320;-0.013782;2.546140
6.330;-0.005124;2.543714
6.340;0.003691;2.541921
6.350;0.012611;2.540267
6.360;0.021652;2.538396
6.370;0.030948;2.536282
6.380;0.040720;2.534251
6.390;0.051192;2.532823
6.400;0.062488;2.532434
6.410;0.074579;2.533157
6.420;0.087272;2.534581
6.430;0.100261;2.535911
6.440;0.113197;2.536265
6.450;0.125756;2.535009
6.460;0.137687;2.531998
6.470;0.148845;2.527597
6.480;0.159190;2.522516
6.490;0.168781;2.517541
6.500;0.177756;2.513292
6.510;0.186346;2.510076
6.520;0.194888;2.507836
6.530;0.203786;2.506183
6.540;0.213410;2.504477
6.550;0.223945;2.501992
6.560;0.235302;2.498124
6.570;0.247116;2.492612
6.580;0.258836;2.485678
6.590;0.269858;2.477986
6.600;0.279649;2.470429
6.610;0.287836;2.463829
6.620;0.294250;2.458706
6.630;0.298923;2.455224
6.640;0.302033;2.453306
6.650;0.303812;2.452811
6.660;0.304472;2.453631
6.670;0.304161;2.455659
6.680;0.302986;2.458676
6.690;0.301047;2.462259
6.700;0.298502;2.465744
6.710;0.295631;2.468299
6.720;0.292866;2.469083
6.730;0.290763;2.467501
6.740;0.289890;2.463432
6.750;0.290677;2.457311
6.760;0.293281;2.449970
6.770;0.297539;2.442278
6.780;0.303032;2.434765
6.790;0.309251;2.427441
6.800;0.315789;2.419890
6.810;0.322495;2.411583
6.820;0.329493;2.402195
6.830;0.337076;2.391764
6.840;0.345518;2.380665
6.850;0.354898;2.369440
6.860;0.365015;2.358585
6.870;0.375440;2.348368
6.880;0.385659;2.338742
6.890;0.395248;2.329377
6.900;0.403995;2.319807
6.910;0.411927;2.309614
6.920;0.419244;2.298599
6.930;0.426211;2.286866
6.940;0.433059;2.274827
6.950;0.439913;2.263115
6.960;0.446761;2.252448
6.970;0.453438;2.243473
6.980;0.459638;2.236583
6.990;0.464963;2.231772
7.000;0.469019;2.228593
7.010;0.471545;2.226284
7.020;0.472515;2.224010
7.030;0.472171;2.221143
7.040;0.470959;2.217457
7.050;0.469382;2.213140
7.060;0.467840;2.208650
7.070;0.466508;2.204487
7.080;0.465297;2.200970
7.090;0.463884;2.198096
7.100;0.461801;2.195518
7.110;0.458550;2.192663
7.120;0.453760;2.188962
7.130;0.447318;2.184089
7.140;0.439439;2.178089
7.150;0.430602;2.171343
7.160;0.421383;2.164413
7.170;0.412239;2.157884
7.180;0.403369;2.152249
7.190;0.394685;2.147852
7.200;0.385925;2.144822
7.210;0.376817;2.143009
7.220;0.367226;2.141955
7.230;0.357212;2.140959
7.240;0.346972;2.139269
7.250;0.336732;2.136328
7.260;0.326667;2.131982
7.270;0.316875;2.126548
7.280;0.307400;2.120697
7.290;0.298260;2.115196
7.300;0.289442;2.110607
7.310;0.280871;2.107094
7.320;0.272370;2.104445
7.330;0.263645;2.102288
7.340;0.254318;2.100378
7.350;0.244018;2.098779
7.360;0.232510;2.097843
7.370;0.219804;2.098009
7.380;0.206180;2.099544
7.390;0.192095;2.102384
7.400;0.178010;2.106133
7.410;0.164209;2.110220
7.420;0.150684;2.114129
7.430;0.137115;2.117574
7.440;0.122935;2.120541
7.450;0.107459;2.123227
7.460;0.090052;2.125952
7.470;0.070296;2.129122
7.480;0.048103;2.133190
7.490;0.023748;2.138560
7.500;-0.002218;2.145420
7.510;-0.029108;2.153580
7.520;-0.056234;2.162456
7.530;-0.082976;2.171246
7.540;-0.108815;2.179239
7.550;-0.133325;2.186111
7.560;-0.156190;2.192031
7.570;-0.177210;2.197547
7.580;-0.196299;2.203317
7.590;-0.213448;2.209820
7.600;-0.228658;2.217161
7.610;-0.241866;2.225014
7.620;-0.252895;2.232712
7.630;-0.261480;2.239439
7.640;-0.267383;2.244461
7.650;-0.270538;2.247306
7.660;-0.271176;2.247865
7.670;-0.269859;2.246425
7.680;-0.267428;2.243602
7.690;-0.264863;2.240210
7.700;-0.263094;2.237061
7.710;-0.262812;2.234788
7.720;-0.264332;2.233740
7.730;-0.267571;2.233983
7.740;-0.272147;2.235370
7.750;-0.277540;2.237641
7.760;-0.283275;2.240482
7.770;-0.289043;2.243569
7.780;-0.294767;2.246584
7.790;-0.300592;2.249222
7.800;-0.306853;2.251197
7.810;-0.314020;2.252247
7.820;-0.322600;2.252188
7.830;-0.332990;2.250990
7.840;-0.345307;2.248850
7.850;-0.359274;2.246186
7.860;-0.374224;2.243529
7.870;-0.389213;2.241370
7.880;-0.403174;2.239988
7.890;-0.415075;2.239349
7.900;-0.424040;2.239104
7.910;-0.429476;2.238693
7.920;-0.431208;2.237515
7.930;-0.429541;2.235080
7.940;-0.425200;2.231107
7.950;-0.419132;2.225554
7.960;-0.412256;2.218621
7.970;-0.405278;2.210746
7.980;-0.398619;2.202574
7.990;-0.392485;2.194873
8.000;-0.386970;2.188352
8.010;-0.382155;2.183426
8.020;-0.378124;2.180031
8.030;-0.374933;2.177587
8.040;-0.372584;2.175199
8.050;-0.371031;2.171982
8.060;-0.370207;2.167376
8.070;-0.370067;2.161279
8.080;-0.370580;2.153999
8.090;-0.371692;2.146089
8.100;-0.373239;2.138151
8.110;-0.374876;2.130680
8.120;-0.376051;2.123966
8.130;-0.376080;2.118094
8.140;-0.374272;2.113024
8.150;-0.370099;2.108691
8.160;-0.363316;2.105061
8.170;-0.354032;2.102119
8.180;-0.342715;2.099793
