Time[s];COPx[cm];COPy[cm]
0.010;0.407591;0.670241
0.020;0.375014;0.659150
0.030;0.343070;0.649866
0.040;0.312160;0.643747
0.050;0.282417;0.641521
0.060;0.253734;0.643229
0.070;0.225899;0.648416
0.080;0.198797;0.656460
0.090;0.172577;0.666883
0.100;0.147736;0.679529
0.110;0.125115;0.694625
0.120;0.105836;0.712778
0.130;0.091186;0.734902
0.140;0.082443;0.762038
0.150;0.080671;0.795060
0.160;0.086525;0.834336
0.170;0.100162;0.879511
0.180;0.121281;0.929553
0.190;0.149318;0.983069
0.200;0.183667;1.038742
0.210;0.223830;1.095621
0.220;0.269406;1.153092
0.230;0.319950;1.210558
0.240;0.374812;1.267058
0.250;0.433101;1.321111
0.260;0.493785;1.370940
0.270;0.555893;1.414974
0.280;0.618672;1.452407
0.290;0.681629;1.483556
0.300;0.744426;1.509876
0.310;0.806688;1.533568
0.320;0.867817;1.556900
0.330;0.926897;1.581458
0.340;0.982722;1.607636
0.350;1.033942;1.634565
0.360;1.079253;1.660500
0.370;1.117595;1.683492
0.380;1.148263;1.702058
0.390;1.170906;1.715596
0.400;1.185405;1.724418
0.410;1.191698;1.729441
0.420;1.189621;1.731731
0.430;1.178860;1.732095
0.440;1.159043;1.730869
0.450;1.129961;1.727925
0.460;1.091831;1.722841
0.470;1.045472;1.715114
0.480;0.992285;1.704329
0.490;0.934007;1.690230
0.500;0.872317;1.672736
0.510;0.808453;1.651923
0.520;0.743022;1.628022
0.530;0.676101;1.601416
0.540;0.607554;1.572588
0.550;0.537431;1.542044
0.560;0.466251;1.510225
0.570;0.395049;1.477468
0.580;0.325185;1.444049
0.590;0.258023;1.410273
0.600;0.194637;1.376585
0.610;0.135639;1.343649
0.620;0.081142;1.312345
0.630;0.030819;1.283670
0.640;-0.015996;1.258539
0.650;-0.060157;1.237592
0.660;-0.102539;1.221079
0.670;-0.143891;1.208876
0.680;-0.184765;1.200605
0.690;-0.225524;1.195778
0.700;-0.266416;1.193929
0.710;-0.307650;1.194695
0.720;-0.349435;1.197838
0.730;-0.391930;1.203140
0.740;-0.435105;1.210241
0.750;-0.478548;1.218493
0.760;-0.521320;1.226961
0.770;-0.561905;1.234587
0.780;-0.598329;1.240462
0.790;-0.628410;1.244065
0.800;-0.650084;1.245352
0.810;-0.661721;1.244665
0.820;-0.662343;1.242507
0.830;-0.651698;1.239323
0.840;-0.630190;1.235364
0.850;-0.598705;1.230674
0.860;-0.558433;1.225177
0.870;-0.510732;1.218769
0.880;-0.457065;1.211352
0.890;-0.398982;1.202747
0.900;-0.338083;1.192541
0.910;-0.275944;1.179931
0.920;-0.213988;1.163650
0.930;-0.153333;1.141986
0.940;-0.094717;1.112934
0.950;-0.038526;1.074498
0.960;0.015052;1.025197
0.970;0.065837;0.964678
0.980;0.113500;0.894241
0.990;0.157499;0.817010
1.000;0.197139;0.737616
1.010;0.231737;0.661424
1.020;0.260834;0.593511
1.030;0.284366;0.537709
1.040;0.302713;0.495981
1.050;0.316602;0.468282
1.060;0.326917;0.452889
1.070;0.334482;0.447036
1.080;0.339893;0.447663
1.090;0.343390;0.452102
1.100;0.344781;0.458590
1.110;0.343443;0.466496
1.120;0.338397;0.476227
1.130;0.328506;0.488856
1.140;0.312745;0.505593
1.150;0.290479;0.527293
1.160;0.261660;0.554199
1.170;0.226852;0.585982
1.180;0.187081;0.622007
1.190;0.143528;0.661599
1.200;0.097155;0.704129
1.210;0.048437;0.748881
1.220;-0.002687;0.794810
1.230;-0.056614;0.840380
1.240;-0.113697;0.883609
1.250;-0.173865;0.922330
1.260;-0.236385;0.954585
1.270;-0.299859;0.979028
1.280;-0.362444;0.995235
1.290;-0.422219;1.003827
1.300;-0.477563;1.006378
1.310;-0.527459;1.005132
1.320;-0.571627;1.002611
1.330;-0.610486;1.001191
1.340;-0.644964;1.002732
1.350;-0.676213;1.008284
1.360;-0.705261;1.017931
1.370;-0.732682;1.030787
1.380;-0.758355;1.045186
1.390;-0.781440;1.059046
1.400;-0.800607;1.070369
1.410;-0.814477;1.077750
1.420;-0.822082;1.080704
1.430;-0.823167;1.079703
1.440;-0.818203;1.075899
1.450;-0.808157;1.070706
1.460;-0.794146;1.065435
1.470;-0.777164;1.061077
1.480;-0.757956;1.058237
1.490;-0.737029;1.057137
1.500;-0.714726;1.057616
1.510;-0.691273;1.059120
1.520;-0.666785;1.060707
1.530;-0.641210;1.061139
1.540;-0.614262;1.059053
1.550;-0.585374;1.053193
1.560;-0.553709;1.042609
1.570;-0.518248;1.026725
1.580;-0.477916;1.005258
1.590;-0.431725;0.978037
1.600;-0.378903;0.944833
1.610;-0.319012;0.905305
1.620;-0.252010;0.859074
1.630;-0.178263;0.805919
1.640;-0.098488;0.746054
1.650;-0.013658;0.680433
1.660;0.075079;0.610993
1.670;0.166470;0.540689
1.680;0.259212;0.473217
1.690;0.352046;0.412407
1.700;0.443857;0.361436
1.710;0.533761;0.322088
1.720;0.621113;0.294334
1.730;0.705410;0.276378
1.740;0.786146;0.265205
1.750;0.862693;0.257473
1.760;0.934285;0.250477
1.770;1.000132;0.242886
1.780;1.059608;0.235071
1.790;1.112452;0.228948
1.800;1.158893;0.227385
1.810;1.199660;0.233327
1.820;1.235852;0.248933
1.830;1.268668;0.274981
1.840;1.299094;0.310742
1.850;1.327658;0.354309
1.860;1.354402;0.403197
1.870;1.379059;0.454969
1.880;1.401328;0.507690
1.890;1.421089;0.560109
1.900;1.438461;0.611588
1.910;1.453703;0.661845
1.920;1.467038;0.710672
1.930;1.478521;0.757734
1.940;1.488027;0.802549
1.950;1.495381;0.844619
1.960;1.500563;0.883624
1.970;1.503887;0.919547
1.980;1.506021;0.952668
1.990;1.507863;0.983440
2.000;1.510314;1.012314
2.010;1.514096;1.039591
2.020;1.519668;1.065348
2.030;1.527218;1.089455
2.040;1.536691;1.111650
2.050;1.547808;1.131619
2.060;1.560078;1.149027
2.070;1.572841;1.163496
2.080;1.585328;1.174596
2.090;1.596742;1.181914
2.100;1.606334;1.185189
2.110;1.613469;1.184471
2.120;1.617683;1.180239
2.130;1.618709;1.173421
2.140;1.616467;1.165302
2.150;1.610995;1.157304
2.160;1.602367;1.150674
2.170;1.590584;1.146213
2.180;1.575490;1.144161
2.190;1.556683;1.144306
2.200;1.533471;1.146225
2.210;1.504869;1.149520
2.220;1.469711;1.153874
2.230;1.426856;1.158908
2.240;1.375462;1.163895
2.250;1.315249;1.167518
2.260;1.246683;1.167849
2.270;1.171045;1.162680
2.280;1.090379;1.150134
2.290;1.007310;1.129353
2.300;0.924758;1.100937
2.310;0.845534;1.066900
2.320;0.771901;1.030133
2.330;0.705231;0.993640
2.340;0.645907;0.959845
2.350;0.593531;0.930200
2.360;0.547343;0.905139
2.370;0.506656;0.884299
2.380;0.471147;0.866884
2.390;0.440924;0.852024
2.400;0.416419;0.839024
2.410;0.398181;0.827450
2.420;0.386641;0.817096
2.430;0.381900;0.807892
2.440;0.383559;0.799790
2.450;0.390666;0.792688
2.460;0.401816;0.786402
2.470;0.415382;0.780696
2.480;0.429786;0.775372
2.490;0.443717;0.770334
2.500;0.456225;0.765583
2.510;0.466730;0.761119
2.520;0.474974;0.756823
2.530;0.480948;0.752400
2.540;0.484815;0.747408
2.550;0.486832;0.741373
2.560;0.487261;0.733919
2.570;0.486311;0.724846
2.580;0.484120;0.714134
2.590;0.480793;0.701870
2.600;0.476477;0.688152
2.610;0.471423;0.672999
2.620;0.465981;0.656315
2.630;0.460526;0.637946
2.640;0.455341;0.617845
2.650;0.450527;0.596322
2.660;0.445992;0.574299
2.670;0.441538;0.553443
2.680;0.436974;0.536047
2.690;0.432220;0.524606
2.700;0.427348;0.521203
2.710;0.422583;0.526907
2.720;0.418253;0.541442
2.730;0.414681;0.563262
2.740;0.412015;0.590010
2.750;0.410048;0.619209
2.760;0.408102;0.648935
2.770;0.405054;0.678282
2.780;0.399526;0.707498
2.790;0.390185;0.737725
2.800;0.376034;0.770411
2.810;0.356618;0.806554
2.820;0.332093;0.846085
2.830;0.303159;0.887645
2.840;0.270883;0.928854
2.850;0.236458;0.966949
2.860;0.200959;0.999529
2.870;0.165190;1.025117
2.880;0.129677;1.043390
2.890;0.094784;1.055071
2.900;0.060870;1.061586
2.910;0.028376;1.064651
2.920;-0.002190;1.065860
2.930;-0.030301;1.066365
2.940;-0.055447;1.066676
2.950;-0.077112;1.066652
2.960;-0.094738;1.065670
2.970;-0.107728;1.062918
2.980;-0.115526;1.057669
2.990;-0.117766;1.049447
3.000;-0.114390;1.038100
3.010;-0.105688;1.023820
3.020;-0.092243;1.007160
3.030;-0.074830;0.989007
3.040;-0.054332;0.970516
3.050;-0.031693;0.952968
3.060;-0.007879;0.937580
3.070;0.016163;0.925271
3.080;0.039528;0.916445
3.090;0.061373;0.910877
3.100;0.080930;0.907779
3.110;0.097541;0.906052
3.120;0.110715;0.904676
3.130;0.120148;0.903119
3.140;0.125686;0.901562
3.150;0.127204;0.900830
3.160;0.124500;0.901989
3.170;0.117260;0.905792
3.180;0.105162;0.912210
3.190;0.088059;0.920309
3.200;0.066139;0.928533
3.210;0.039969;0.935280
3.220;0.010381;0.939458
3.230;-0.021721;0.940788
3.240;-0.055553;0.939729
3.250;-0.090545;0.937147
3.260;-0.126290;0.933931
3.270;-0.162384;0.930709
3.280;-0.198249;0.927784
3.290;-0.233019;0.925230
3.300;-0.265549;0.923060
3.310;-0.294564;0.921348
3.320;-0.318877;0.920255
3.330;-0.337627;0.919956
3.340;-0.350443;0.920564
3.350;-0.357497;0.922085
3.360;-0.359411;0.924428
3.370;-0.357025;0.927461
3.380;-0.351088;0.931045
3.390;-0.342013;0.935041
3.400;-0.329809;0.939270
3.410;-0.314213;0.943500
3.420;-0.294972;0.947502
3.430;-0.272132;0.951198
3.440;-0.246208;0.954792
3.450;-0.218146;0.958798
3.460;-0.189086;0.963867
3.470;-0.160052;0.970452
3.480;-0.131703;0.978439
3.490;-0.104274;0.986938
3.500;-0.077677;0.994388
3.510;-0.051720;0.998975
3.520;-0.026317;0.999226
3.530;-0.001621;0.994486
3.540;0.021942;0.985073
3.550;0.043759;0.972026
3.560;0.063190;0.956580
3.570;0.079764;0.939613
3.580;0.093331;0.921315
3.590;0.104118;0.901209
3.600;0.112635;0.878463
3.610;0.119487;0.852283
3.620;0.125160;0.822186
3.630;0.129861;0.788048
3.640;0.133460;0.750000
3.650;0.135560;0.708281
3.660;0.135669;0.663186
3.670;0.133429;0.615121
3.680;0.128765;0.564742
3.690;0.121886;0.513078
3.700;0.113133;0.461566
3.710;0.102752;0.411957
3.720;0.090721;0.366120
3.730;0.076717;0.325803
3.740;0.060254;0.292400
3.750;0.040936;0.266748
3.760;0.018692;0.248978
3.770;-0.006135;0.238459
3.780;-0.032854;0.233908
3.790;-0.060612;0.233647
3.800;-0.088584;0.235935
3.810;-0.116097;0.239250
3.820;-0.142663;0.242414
3.830;-0.167949;0.244597
3.840;-0.191712;0.245237
3.850;-0.213746;0.243963
3.860;-0.233848;0.240549
3.870;-0.251816;0.234938
3.880;-0.267449;0.227283
3.890;-0.280508;0.217973
3.900;-0.290661;0.207584
3.910;-0.297428;0.196758
3.920;-0.300175;0.186077
3.930;-0.298181;0.175949
3.940;-0.290801;0.166575
3.950;-0.277666;0.157988
3.960;-0.258850;0.150182
3.970;-0.234899;0.143315
3.980;-0.206705;0.137878
3.990;-0.175253;0.134723
4.000;-0.141364;0.134883
4.010;-0.105538;0.139237
4.020;-0.067953;0.148153
4.030;-0.028594;0.161277
4.040;0.012567;0.177580
4.050;0.055398;0.195647
4.060;0.099498;0.214077
4.070;0.144143;0.231815
4.080;0.188330;0.248294
4.090;0.230909;0.263406
4.100;0.270816;0.277393
4.110;0.307373;0.290746
4.120;0.340530;0.304161
4.130;0.370959;0.318502
4.140;0.399908;0.334721
4.150;0.428871;0.353673
4.160;0.459198;0.375847
4.170;0.491799;0.401106
4.180;0.527040;0.428561
4.190;0.564848;0.456704
4.200;0.604942;0.483788
4.210;0.647064;0.508309
4.220;0.691106;0.529410
4.230;0.737078;0.547074
4.240;0.784963;0.562041
4.250;0.834521;0.575505
4.260;0.885165;0.588679
4.270;0.935971;0.602395
4.280;0.985839;0.616874
4.290;1.033733;0.631716
4.300;1.078883;0.646120
4.310;1.120845;0.659227
4.320;1.159396;0.670471
4.330;1.194364;0.679796
4.340;1.225514;0.687665
4.350;1.252562;0.694878
4.360;1.275297;0.702272
4.370;1.293709;0.710438
4.380;1.308043;0.719518
4.390;1.318757;0.729125
4.400;1.326402;0.738369
4.410;1.331493;0.746005
4.420;1.334402;0.750660
4.430;1.335314;0.751131
4.440;1.334264;0.746639
4.450;1.331254;0.736987
4.460;1.326389;0.722550
4.470;1.319955;0.704099
4.480;1.312419;0.682526
4.490;1.304380;0.658550
4.500;1.296511;0.632542
4.510;1.289503;0.604513
4.520;1.283973;0.574257
4.530;1.280358;0.541566
4.540;1.278821;0.506434
4.550;1.279251;0.469190
4.560;1.281354;0.430555
4.570;1.284807;0.391611
4.580;1.289398;0.353697
4.590;1.295091;0.318222
4.600;1.302011;0.286407
4.610;1.310366;0.259022
4.620;1.320373;0.236207
4.630;1.332206;0.217482
4.640;1.345960;0.201961
4.650;1.361617;0.188673
4.660;1.379034;0.176823
4.670;1.397962;0.165895
4.680;1.418119;0.155614
4.690;1.439265;0.145852
4.700;1.461231;0.136563
4.710;1.483876;0.127779
4.720;1.507007;0.119655
4.730;1.530327;0.112528
4.740;1.553479;0.106965
4.750;1.576132;0.103765
4.760;1.598041;0.103862
4.770;1.619026;0.108107
4.780;1.638892;0.116972
4.790;1.657371;0.130289
4.800;1.674122;0.147198
4.810;1.688783;0.166348
4.820;1.701003;0.186302
4.830;1.710409;0.205958
4.840;1.716458;0.224852
4.850;1.718257;0.243279
4.860;1.714452;0.262220
4.870;1.703289;0.283138
4.880;1.682884;0.307622
4.890;1.651646;0.336955
4.900;1.608756;0.371650
4.910;1.554548;0.411079
4.920;1.490626;0.453318
4.930;1.419612;0.495313
4.940;1.344548;0.533371
4.950;1.268147;0.563882
4.960;1.192184;0.584065
4.970;1.117299;0.592558
4.980;1.043304;0.589690
4.990;0.969847;0.577356
5.000;0.897120;0.558514
5.010;0.826271;0.536426
5.020;0.759361;0.513928
5.030;0.698905;0.492957
5.040;0.647222;0.474509
5.050;0.605894;0.458976
5.060;0.575525;0.446638
5.070;0.555853;0.438050
5.080;0.546090;0.434112
5.090;0.545337;0.435807
5.100;0.552905;0.443755
5.110;0.568454;0.457799
5.120;0.591935;0.476826
5.130;0.623362;0.498909
5.140;0.662526;0.521766
5.150;0.708750;0.543387
5.160;0.760768;0.562584
5.170;0.816782;0.579220
5.180;0.874675;0.594031
5.190;0.932297;0.608150
5.200;0.987770;0.622590
5.210;1.039742;0.637917
5.220;1.087539;0.654210
5.230;1.131158;0.671241
5.240;1.171088;0.688721
5.250;1.208002;0.706419
5.260;1.242479;0.724107
5.270;1.274853;0.741409
5.280;1.305210;0.757716
5.290;1.333490;0.772270
5.300;1.359606;0.784383
5.310;1.383577;0.793641
5.320;1.405644;0.799952
5.330;1.426358;0.803442
5.340;1.446590;0.804280
5.350;1.467445;0.802587
5.360;1.490070;0.798503
5.370;1.515430;0.792368
5.380;1.544118;0.784888
5.390;1.576270;0.777167
5.400;1.611601;0.770524
5.410;1.649535;0.766145
5.420;1.689385;0.764728
5.430;1.730496;0.766309
5.440;1.772318;0.770344
5.450;1.814376;0.775964
5.460;1.856190;0.782259
5.470;1.897231;0.788447
5.480;1.936956;0.793904
5.490;1.974923;0.798130
5.500;2.010896;0.800723
5.510;2.044843;0.801447
5.520;2.076811;0.800327
5.530;2.106773;0.797711
5.540;2.134553;0.794249
5.550;2.159876;0.790779
5.560;2.182490;0.788175
5.570;2.202235;0.787165
5.580;2.219014;0.788149
5.590;2.232718;0.791039
5.600;2.243189;0.795179
5.610;2.250284;0.799413
5.620;2.254010;0.802303
5.630;2.254619;0.802429
5.640;2.252616;0.798692
5.650;2.248672;0.790502
5.660;2.243500;0.777853
5.670;2.237763;0.761294
5.680;2.232016;0.741814
5.690;2.226677;0.720695
5.700;2.222018;0.699312
5.710;2.218169;0.678904
5.720;2.215170;0.660368
5.730;2.213013;0.644150
5.740;2.211670;0.630300
5.750;2.211071;0.618638
5.760;2.211072;0.608958
5.770;2.211431;0.601139
5.780;2.211830;0.595159
5.790;2.211922;0.590999
5.800;2.211394;0.588553
5.810;2.209970;0.587590
5.820;2.207375;0.587799
5.830;2.203300;0.588877
5.840;2.197404;0.590575
5.850;2.189357;0.592647
5.860;2.178900;0.594715
5.870;2.165895;0.596155
5.880;2.150322;0.596117
5.890;2.132215;0.593737
5.900;2.111541;0.588453
5.910;2.088097;0.580259
5.920;2.061475;0.569772
5.930;2.031133;0.558073
5.940;1.996528;0.546410
5.950;1.957292;0.535861
5.960;1.913396;0.527063
5.970;1.865262;0.520073
5.980;1.813774;0.514384
5.990;1.760152;0.509114
6.000;1.705708;0.503343
6.010;1.651549;0.496480
6.020;1.598350;0.488568
6.030;1.546260;0.480389
6.040;1.494990;0.473340
6.050;1.444043;0.469091
6.060;1.393014;0.469083
6.070;1.341849;0.474034
6.080;1.290991;0.483625
6.090;1.241377;0.496507
6.100;1.194266;0.510656
6.110;1.150959;0.523981
6.120;1.112480;0.534924
6.130;1.079341;0.542866
6.140;1.051486;0.548159
6.150;1.028430;0.551836
6.160;1.009488;0.555135
6.170;0.994004;0.559043
6.180;0.981476;0.564040
6.190;0.971573;0.570108
6.200;0.964069;0.576949
6.210;0.958755;0.584240
6.220;0.955409;0.591786
6.230;0.953816;0.599530
6.240;0.953834;0.607488
6.250;0.955463;0.615682
6.260;0.958901;0.624121
6.270;0.964554;0.632801
6.280;0.973000;0.641692
6.290;0.984869;0.650682
6.300;1.000664;0.659510
6.310;1.020555;0.667742
6.320;1.044243;0.674833
6.330;1.070944;0.680257
6.340;1.099512;0.683687
6.350;1.128683;0.685171
6.360;1.157324;0.685222
6.370;1.184635;0.684776
6.380;1.210216;0.684990
6.390;1.234035;0.686936
6.400;1.256295;0.691292
6.410;1.277268;0.698130
6.420;1.297120;0.706894
6.430;1.315781;0.716601
6.440;1.332898;0.726217
6.450;1.347884;0.735079
6.460;1.360049;0.743126
6.470;1.368807;0.750865
6.480;1.373913;0.759099
6.490;1.375666;0.768609
6.500;1.374955;0.779923
6.510;1.373067;0.793215
6.520;1.371305;0.808327
6.530;1.370563;0.824887
6.540;1.371055;0.842451
6.550;1.372322;0.860606
6.560;1.373489;0.879028
6.570;1.373607;0.897470
6.580;1.371950;0.915710
6.590;1.368144;0.933473
6.600;1.362167;0.950400
6.610;1.354238;0.966074
6.620;1.344686;0.980101
6.630;1.333833;0.992181
6.640;1.321904;1.002126
6.650;1.308975;1.009865
6.660;1.294951;1.015471
6.670;1.279561;1.019192
6.680;1.262367;1.021466
6.690;1.242777;1.022835
6.700;1.220078;1.023788
6.710;1.193525;1.024590
6.720;1.162477;1.025195
6.730;1.126591;1.025294
6.740;1.086008;1.024460
6.750;1.041460;1.022294
6.760;0.994236;1.018508
6.770;0.946004;1.012954
6.780;0.898547;1.005646
6.790;0.853501;0.996829
6.800;0.812185;0.987046
6.810;0.775531;0.977098
6.820;0.744132;0.967850
6.830;0.718332;0.959949
6.840;0.698317;0.953594
6.850;0.684156;0.948502
6.860;0.675808;0.944089
6.870;0.673132;0.939748
6.880;0.675898;0.935084
6.890;0.683784;0.930016
6.900;0.696355;0.924729
6.910;0.713008;0.919536
6.920;0.732907;0.914708
6.930;0.754958;0.910373
6.940;0.777866;0.906494
6.950;0.800256;0.902952
6.960;0.820860;0.899650
6.970;0.838662;0.896611
6.980;0.852974;0.894003
6.990;0.863410;0.892099
7.000;0.869798;0.891163
7.010;0.872116;0.891294
7.020;0.870485;0.892286
7.030;0.865208;0.893589
7.040;0.856768;0.894422
7.050;0.845733;0.894000
7.060;0.832618;0.891796
7.070;0.817779;0.887740
7.080;0.801420;0.882262
7.090;0.783711;0.876177
7.100;0.764903;0.870443
7.110;0.745369;0.865880
7.120;0.725525;0.862963
7.130;0.705682;0.861752
7.140;0.685895;0.861998
7.150;0.665898;0.863387
7.160;0.645117;0.865851
7.170;0.622736;0.869807
7.180;0.597801;0.876222
7.190;0.569335;0.886413
7.200;0.536492;0.901650
7.210;0.498785;0.922639
7.220;0.456359;0.949072
7.230;0.410264;0.979417
7.240;0.362532;1.011121
7.250;0.315946;1.041233
7.260;0.273446;1.067240
7.270;0.237351;1.087756
7.280;0.208720;1.102781
7.290;0.187140;1.113449
7.300;0.171050;1.121486
7.310;0.158419;1.128624
7.320;0.147467;1.136176
7.330;0.137157;1.144813
7.340;0.127337;1.154555
7.350;0.118605;1.164925
7.360;0.112013;1.175237
7.370;0.108700;1.184906
7.380;0.109552;1.193690
7.390;0.114982;1.201800
7.400;0.124896;1.209837
7.410;0.138859;1.218607
7.420;0.156349;1.228889
7.430;0.176975;1.241246
7.440;0.200554;1.255949
7.450;0.227050;1.272999
7.460;0.256412;1.292215
7.470;0.288419;1.313296
7.480;0.322599;1.335838
7.490;0.358242;1.359286
7.500;0.394473;1.382914
7.510;0.430351;1.405893
7.520;0.464947;1.427472
7.530;0.497420;1.447165
7.540;0.527081;1.464869
7.550;0.553446;1.480843
7.560;0.576255;1.495554
7.570;0.595462;1.509473
7.580;0.611174;1.522899
7.590;0.623582;1.535882
7.600;0.632897;1.548286
7.610;0.639298;1.559931
7.620;0.642894;1.570720
7.630;0.643712;1.580661
7.640;0.641722;1.589765
7.650;0.636917;1.597879
7.660;0.629444;1.604550
7.670;0.619731;1.609016
7.680;0.608568;1.610377
7.690;0.597071;1.607899
7.700;0.586518;1.601354
7.710;0.578088;1.591222
7.720;0.572620;1.578666
7.730;0.570486;1.565264
7.740;0.571653;1.552608
7.750;0.575923;1.541909
7.760;0.583235;1.533730
7.770;0.593905;1.527900
7.780;0.608664;1.523645
7.790;0.628503;1.519839
7.800;0.654358;1.515286
7.810;0.686790;1.508910
7.820;0.725772;1.499847
7.830;0.770666;1.487484
7.840;0.820375;1.471506
7.850;0.873590;1.451942
7.860;0.929009;1.429198
7.870;0.985481;1.404008
7.880;1.042043;1.377329
7.890;1.097871;1.350234
7.900;1.152217;1.323824
7.910;1.204392;1.299182
7.920;1.253815;1.277326
7.930;1.300062;1.259150
7.940;1.342879;1.245371
7.950;1.382146;1.236483
7.960;1.417832;1.232720
7.970;1.449972;1.233989
7.980;1.478637;1.239794
7.990;1.503905;1.249234
8.000;1.525851;1.261162
8.010;1.544554;1.274482
8.020;1.560117;1.288455
8.030;1.572697;1.302858
8.040;1.582516;1.317919
8.050;1.589860;1.334112
8.060;1.595050;1.351929
8.070;1.598400;1.371724
8.080;1.600171;1.393651
8.090;1.600583;1.417657
8.100;1.599879;1.443507
8.110;1.598408;1.470833
8.120;1.596668;1.499204
8.130;1.595250;1.528200
8.140;1.594714;1.557452
8.150;1.595456;1.586642
8.160;1.597640;1.615462
8.170;1.601210;1.643565
8.180;1.605957;1.670540
8.190;1.611617;1.695922
8.200;1.617950;1.719237
8.210;1.624802;1.740095
8.220;1.632150;1.758289
8.230;1.640107;1.773885
8.240;1.648876;1.787224
8.250;1.658658;1.798798
8.260;1.669519;1.809011
