Time[s];COPx[cm];COPy[cm]
0.010;1.542995;-2.390862
0.020;1.520027;-2.343788
0.030;1.503948;-2.295112
0.040;1.499208;-2.243861
0.050;1.507372;-2.190572
0.060;1.526924;-2.137184
0.070;1.553906;-2.086262
0.080;1.583190;-2.039787
0.090;1.610054;-1.997913
0.100;1.631634;-1.958092
0.110;1.647769;-1.914981
0.120;1.660819;-1.861366
0.130;1.674355;-1.790126
0.140;1.691154;-1.696732
0.150;1.711350;-1.581396
0.160;1.731651;-1.449907
0.170;1.745963;-1.312703
0.180;1.747038;-1.182513
0.190;1.728347;-1.071367
0.200;1.685471;-0.987849
0.210;1.616724;-0.935277
0.220;1.523096;-0.911166
0.230;1.407750;-0.908082
0.240;1.275316;-0.915624
0.250;1.131129;-0.922895
0.260;0.980500;-0.920648
0.270;0.828165;-0.902457
0.280;0.678062;-0.864761
0.290;0.533459;-0.806227
0.300;0.397276;-0.727092
0.310;0.272325;-0.628964
0.320;0.161245;-0.515089
0.330;0.066163;-0.390719
0.340;-0.011766;-0.263090
0.350;-0.072611;-0.140677
0.360;-0.117539;-0.031782
0.370;-0.148301;0.057218
0.380;-0.166545;0.123411
0.390;-0.173283;0.168170
0.400;-0.168783;0.196952
0.410;-0.153000;0.218033
0.420;-0.126373;0.240511
0.430;-0.090636;0.272161
0.440;-0.049195;0.317882
0.450;-0.006845;0.379197
0.460;0.031139;0.454796
0.470;0.060232;0.541646
0.480;0.077767;0.635980
0.490;0.083554;0.733781
0.500;0.079797;0.830796
0.510;0.070308;0.922500
0.520;0.059222;1.004408
0.530;0.049619;1.072831
0.540;0.042504;1.125736
0.550;0.036534;1.163191
0.560;0.028602;1.187107
0.570;0.015046;1.200349
0.580;-0.006947;1.205672
0.590;-0.038246;1.204924
0.600;-0.077332;1.198838
0.610;-0.120583;1.187394
0.620;-0.163106;1.170443
0.630;-0.199831;1.148171
0.640;-0.226582;1.121127
0.650;-0.240929;1.089861
0.660;-0.242670;1.054499
0.670;-0.233834;1.014653
0.680;-0.218147;0.969858
0.690;-0.200050;0.920349
0.700;-0.183518;0.867741
0.710;-0.171033;0.815125
0.720;-0.163088;0.766353
0.730;-0.158487;0.724666
0.740;-0.155457;0.691182
0.750;-0.153217;0.663923
0.760;-0.153354;0.637903
0.770;-0.160343;0.606321
0.780;-0.180847;0.562487
0.790;-0.221907;0.501823
0.800;-0.288559;0.423351
0.810;-0.381560;0.330303
0.820;-0.496015;0.229668
0.830;-0.621578;0.130686
0.840;-0.744534;0.042533
0.850;-0.851296;-0.028206
0.860;-0.932041;-0.079348
0.870;-0.982888;-0.113435
0.880;-1.005751;-0.136437
0.890;-1.006197;-0.155458
0.900;-0.990590;-0.176448
0.910;-0.963767;-0.202700
0.920;-0.927988;-0.234482
0.930;-0.883225;-0.269738
0.940;-0.828381;-0.305448
0.950;-0.762807;-0.339078
0.960;-0.687471;-0.369513
0.970;-0.605368;-0.397163
0.980;-0.521143;-0.423327
0.990;-0.440194;-0.449271
1.000;-0.367653;-0.475429
1.010;-0.307547;-0.501024
1.020;-0.262337;-0.524103
1.030;-0.232868;-0.541874
1.040;-0.218699;-0.551204
1.050;-0.218666;-0.549199
1.060;-0.231474;-0.533814
1.070;-0.256147;-0.504450
1.080;-0.292220;-0.462406
1.090;-0.339685;-0.411043
1.100;-0.398781;-0.355510
1.110;-0.469721;-0.301906
1.120;-0.552372;-0.255939
1.130;-0.645796;-0.221365
1.140;-0.747587;-0.198667
1.150;-0.853115;-0.184519
1.160;-0.955035;-0.172391
1.170;-1.043565;-0.154293
1.180;-1.107847;-0.123193
1.190;-1.138208;-0.075231
1.200;-1.128593;-0.010804
1.210;-1.078171;0.065968
1.220;-0.991420;0.149187
1.230;-0.876694;0.233650
1.240;-0.743920;0.316790
1.250;-0.602347;0.399348
1.260;-0.459042;0.484635
1.270;-0.318413;0.576769
1.280;-0.182667;0.678600
1.290;-0.052849;0.790102
1.300;0.069994;0.907874
1.310;0.183963;1.025957
1.320;0.286091;1.137687
1.330;0.372795;1.237826
1.340;0.440787;1.324020
1.350;0.488045;1.396932
1.360;0.514409;1.458963
1.370;0.521580;1.512180
1.380;0.512539;1.556458
1.390;0.490691;1.588762
1.400;0.459126;1.603921
1.410;0.420324;1.596592
1.420;0.376391;1.563558
1.430;0.329612;1.505501
1.440;0.283031;1.427639
1.450;0.240670;1.339082
1.460;0.207238;1.251146
1.470;0.187324;1.175149
1.480;0.184402;1.120361
1.490;0.200053;1.092666
1.500;0.233757;1.094207
1.510;0.283307;1.123844
1.520;0.345602;1.178001
1.530;0.417409;1.251448
1.540;0.495840;1.337806
1.550;0.578458;1.429874
1.560;0.663096;1.519973
1.570;0.747557;1.600482
1.580;0.829331;1.664556
1.590;0.905493;1.706854
1.600;0.972918;1.724094
1.610;1.028857;1.715288
1.620;1.071764;1.681689
1.630;1.102028;1.626527
1.640;1.122148;1.554614
1.650;1.136052;1.471782
1.660;1.147660;1.384073
1.670;1.159278;1.296693
1.680;1.170611;1.213012
1.690;1.178878;1.134003
1.700;1.179853;1.058393
1.710;1.169276;0.983490
1.720;1.143978;0.906374
1.730;1.102431;0.825036
1.740;1.044753;0.739079
1.750;0.972460;0.649783
1.760;0.888239;0.559570
1.770;0.795852;0.471190
1.780;0.700038;0.387001
1.790;0.606224;0.308658
1.800;0.519920;0.237231
1.810;0.445858;0.173503
1.820;0.387126;0.118164
1.830;0.344553;0.071720
1.840;0.316557;0.034208
1.850;0.299495;0.004935
1.860;0.288422;-0.017596
1.870;0.278080;-0.035535
1.880;0.263925;-0.051400
1.890;0.243010;-0.067786
1.900;0.214597;-0.087084
1.910;0.180372;-0.111150
1.920;0.144172;-0.140852
1.930;0.111131;-0.175574
1.940;0.086333;-0.212946
1.950;0.073295;-0.249080
1.960;0.072899;-0.279368
1.970;0.083357;-0.299543
1.980;0.101339;-0.306538
1.990;0.123782;-0.298851
2.000;0.149524;-0.276483
2.010;0.179927;-0.240748
2.020;0.218159;-0.194193
2.030;0.267391;-0.140646
2.040;0.328747;-0.085160
2.050;0.399964;-0.033610
2.060;0.475410;0.008149
2.070;0.547427;0.035396
2.080;0.608431;0.045629
2.090;0.652984;0.039312
2.100;0.679285;0.020070
2.110;0.689745;-0.005796
2.120;0.690530;-0.030507
2.130;0.690058;-0.046583
2.140;0.696667;-0.048740
2.150;0.716040;-0.035217
2.160;0.749296;-0.007903
2.170;0.792545;0.028848
2.180;0.838114;0.070108
2.190;0.876936;0.112056
2.200;0.901174;0.152776
2.210;0.906285;0.192042
2.220;0.892082;0.230473
2.230;0.862679;0.268579
2.240;0.825397;0.306141
2.250;0.788895;0.342133
2.260;0.760978;0.375128
2.270;0.746754;0.403972
2.280;0.747778;0.428445
2.290;0.762468;0.449662
2.300;0.787494;0.470041
2.310;0.819429;0.492761
2.320;0.855931;0.520804
2.330;0.896028;0.555848
2.340;0.939590;0.597452
2.350;0.986407;0.642866
2.360;1.035415;0.687586
2.370;1.084412;0.726459
2.380;1.130290;0.754931
2.390;1.169590;0.770054
2.400;1.199168;0.771002
2.410;1.216794;0.759091
2.420;1.221622;0.737441
2.430;1.214431;0.710412
2.440;1.197541;0.682874
2.450;1.174355;0.659315
2.460;1.148573;0.642908
2.470;1.123318;0.634783
2.480;1.100470;0.633802
2.490;1.080420;0.636954
2.500;1.062310;0.640281
2.510;1.044601;0.640043
2.520;1.025731;0.633747
2.530;1.004600;0.620713
2.540;0.980714;0.601963
2.550;0.953901;0.579410
2.560;0.923693;0.554588
2.570;0.888620;0.527387
2.580;0.845734;0.495362
2.590;0.790654;0.454036
2.600;0.718294;0.398246
2.610;0.624250;0.324197
2.620;0.506591;0.231547
2.630;0.367535;0.124713
2.640;0.214216;0.012642
2.650;0.057796;-0.093316
2.660;-0.089323;-0.182942
2.670;-0.217260;-0.250610
2.680;-0.321644;-0.296916
2.690;-0.404294;-0.327701
2.700;-0.471458;-0.351242
2.710;-0.530841;-0.375277
2.720;-0.588957;-0.405174
2.730;-0.649766;-0.443576
2.740;-0.714631;-0.491082
2.750;-0.783092;-0.547194
2.760;-0.853744;-0.610906
2.770;-0.924727;-0.680659
2.780;-0.993725;-0.753858
2.790;-1.057787;-0.826459
2.800;-1.113431;-0.893149
2.810;-1.157311;-0.948286
2.820;-1.187297;-0.987239
2.830;-1.203403;-1.007446
2.840;-1.207983;-1.008740
2.850;-1.205021;-0.992951
2.860;-1.198843;-0.963261
2.870;-1.192839;-0.923699
2.880;-1.188692;-0.878917
2.890;-1.186296;-0.834052
2.900;-1.184253;-0.794384
2.910;-1.180690;-0.764640
2.920;-1.174120;-0.748088
2.930;-1.164079;-0.745792
2.940;-1.151350;-0.756321
2.950;-1.137687;-0.775989
2.960;-1.125135;-0.799427
2.970;-1.115219;-0.820347
2.980;-1.108265;-0.832417
2.990;-1.103113;-0.830273
3.000;-1.097299;-0.810546
3.010;-1.087680;-0.772649
3.020;-1.071241;-0.718953
3.030;-1.045789;-0.654156
3.040;-1.010261;-0.583995
3.050;-0.964614;-0.513727
3.060;-0.909499;-0.446897
3.070;-0.845955;-0.384773
3.080;-0.775273;-0.326538
3.090;-0.698981;-0.270119
3.100;-0.618803;-0.213302
3.110;-0.536463;-0.154731
3.120;-0.453336;-0.094402
3.130;-0.370058;-0.033473
3.140;-0.286274;0.026484
3.150;-0.200719;0.084422
3.160;-0.111705;0.140500
3.170;-0.017928;0.196177
3.180;0.080699;0.253667
3.190;0.182591;0.315040
3.200;0.284690;0.381429
3.210;0.383327;0.452699
3.220;0.475416;0.527658
3.230;0.559481;0.604561
3.240;0.636070;0.681610
3.250;0.707399;0.757251
3.260;0.776390;0.830210
3.270;0.845494;0.899365
3.280;0.915766;0.963572
3.290;0.986462;1.021575
3.300;1.055273;1.072093
3.310;1.119046;1.114053
3.320;1.174795;1.146852
3.330;1.220686;1.170548
3.340;1.256721;1.185888
3.350;1.284900;1.194130
3.360;1.308767;1.196632
3.370;1.332445;1.194273
3.380;1.359450;1.186885
3.390;1.391706;1.173003
3.400;1.429098;1.150171
3.410;1.469701;1.115819
3.420;1.510554;1.068387
3.430;1.548628;1.008214
3.440;1.581625;0.937722
3.450;1.608292;0.860758
3.460;1.628149;0.781310
3.470;1.640727;0.702122
3.480;1.644685;0.623805
3.490;1.637251;0.544771
3.500;1.614326;0.461984
3.510;1.571320;0.372159
3.520;1.504498;0.272976
3.530;1.412449;0.164009
3.540;1.297272;0.047182
3.550;1.165103;-0.073295
3.560;1.025649;-0.191574
3.570;0.890580;-0.301375
3.580;0.771002;-0.397535
3.590;0.674745;-0.477454
3.600;0.604514;-0.541832
3.610;0.557740;-0.594322
3.620;0.528173;-0.640191
3.630;0.508446;-0.684546
3.640;0.492511;-0.730787
3.650;0.477138;-0.779757
3.660;0.462183;-0.829775
3.670;0.449786;-0.877486
3.680;0.442978;-0.919211
3.690;0.444265;-0.952313
3.700;0.454652;-0.976057
3.710;0.473355;-0.991670
3.720;0.498084;-1.001655
3.730;0.525625;-1.008799
3.740;0.552385;-1.015400
3.750;0.574671;-1.023087
3.760;0.588677;-1.033203
3.770;0.590343;-1.047385
3.780;0.575376;-1.067752
3.790;0.539721;-1.096307
3.800;0.480562;-1.133594
3.810;0.397613;-1.177270
3.820;0.294190;-1.221518
3.830;0.177363;-1.258092
3.840;0.056706;-1.278924
3.850;-0.058184;-1.279279
3.860;-0.160438;-1.259782
3.870;-0.247594;-1.226143
3.880;-0.321396;-1.186708
3.890;-0.385950;-1.149170
3.900;-0.445286;-1.118017
3.910;-0.501445;-1.093620
3.920;-0.553670;-1.072956
3.930;-0.598742;-1.051343
3.940;-0.632112;-1.024429
3.950;-0.649347;-0.989723
3.960;-0.647451;-0.947252
3.970;-0.625683;-0.899245
3.980;-0.585689;-0.849113
3.990;-0.530950;-0.800192
4.000;-0.465794;-0.754726
4.010;-0.394305;-0.713371
4.020;-0.319515;-0.675298
4.030;-0.243130;-0.638796
4.040;-0.165813;-0.602109
4.050;-0.087854;-0.564174
4.060;-0.009889;-0.524966
4.070;0.066690;-0.485312
4.080;0.139792;-0.446291
4.090;0.207057;-0.408579
4.100;0.266358;-0.372100
4.110;0.316109;-0.336227
4.120;0.355277;-0.300455
4.130;0.383233;-0.265157
4.140;0.399678;-0.231966
4.150;0.404749;-0.203479
4.160;0.399281;-0.182361
4.170;0.385029;-0.170259
4.180;0.364668;-0.166991
4.190;0.341536;-0.170319
4.200;0.319264;-0.176312
4.210;0.301493;-0.180063
4.220;0.291769;-0.176497
4.230;0.293496;-0.161137
4.240;0.309727;-0.130816
4.250;0.342667;-0.084339
4.260;0.393030;-0.022954
4.270;0.459535;0.049605
4.280;0.538860;0.127680
4.290;0.626143;0.204800
4.300;0.715864;0.275053
4.310;0.802816;0.334332
4.320;0.882907;0.381132
4.330;0.953690;0.416729
4.340;1.014608;0.444710
4.350;1.066916;0.469949
4.360;1.113221;0.497254
4.370;1.156597;0.530011
4.380;1.199456;0.569175
4.390;1.242557;0.612919
4.400;1.284637;0.657047
4.410;1.322842;0.696088
4.420;1.353797;0.724721
4.430;1.374824;0.739145
4.440;1.384839;0.738047
4.450;1.384609;0.722932
4.460;1.376395;0.697687
4.470;1.363178;0.667524
4.480;1.347789;0.637626
4.490;1.332241;0.611983
4.500;1.317419;0.592778
4.510;1.303193;0.580428
4.520;1.288878;0.574140
4.530;1.273881;0.572675
4.540;1.258279;0.575031
4.550;1.243117;0.580861
4.560;1.230275;0.590577
4.570;1.221938;0.605160
4.580;1.219867;0.625762
4.590;1.224749;0.653187
4.600;1.235898;0.687356
4.610;1.251426;0.726894
4.620;1.268842;0.768947
4.630;1.285932;0.809324
4.640;1.301672;0.842990
4.650;1.316880;0.864899
4.660;1.334285;0.871051
4.670;1.357828;0.859524
4.680;1.391282;0.831087
4.690;1.436695;0.789061
4.700;1.493304;0.738361
4.710;1.557374;0.684049
4.720;1.622906;0.629907
4.730;1.682746;0.577517
4.740;1.729629;0.526075
4.750;1.756948;0.472990
4.760;1.759367;0.415080
4.770;1.733474;0.350048
4.780;1.678531;0.277790
4.790;1.597150;0.201091
4.800;1.495516;0.125323
4.810;1.382751;0.057062
4.820;1.269247;0.001969
4.830;1.164305;-0.037208
4.840;1.073897;-0.061540
4.850;0.999546;-0.075215
4.860;0.938774;-0.083613
4.870;0.886839;-0.091194
4.880;0.838920;-0.100135
4.890;0.791967;-0.110104
4.900;0.745773;-0.118955
4.910;0.703154;-0.123889
4.920;0.669301;-0.122628
4.930;0.650508;-0.114293
4.940;0.652529;-0.099813
4.950;0.679043;-0.081862
4.960;0.730766;-0.064370
4.970;0.805549;-0.051756
4.980;0.899334;-0.048051
4.990;1.007432;-0.056086
5.000;1.125498;-0.076900
5.010;1.249847;-0.109503
5.020;1.377174;-0.151065
5.030;1.504044;-0.197553
5.040;1.626548;-0.244637
5.050;1.740338;-0.288612
5.060;1.840961;-0.327032
5.070;1.924216;-0.358875
5.080;1.986326;-0.384250
5.090;2.023940;-0.403805
5.100;2.034143;-0.418078
5.110;2.014690;-0.427044
5.120;1.964552;-0.430047
5.130;1.884689;-0.426132
5.140;1.778817;-0.414673
5.150;1.653803;-0.396044
5.160;1.519294;-0.372084
5.170;1.386287;-0.346129
5.180;1.264864;-0.322475
5.190;1.161810;-0.305358
5.200;1.079167;-0.297808
5.210;1.014379;-0.300896
5.220;0.961918;-0.313692
5.230;0.915586;-0.333882
5.240;0.870622;-0.358634
5.250;0.824972;-0.385308
5.260;0.779545;-0.411754
5.270;0.737537;-0.436259
5.280;0.703107;-0.457368
5.290;0.679837;-0.473834
5.300;0.669413;-0.484746
5.310;0.670994;-0.489680
5.320;0.681453;-0.488661
5.330;0.696371;-0.481875
5.340;0.711302;-0.469303
5.350;0.722775;-0.450548
5.360;0.728692;-0.425006
5.370;0.728095;-0.392361
5.380;0.720598;-0.353130
5.390;0.705832;-0.308978
5.400;0.683177;-0.262588
5.410;0.651807;-0.217133
5.420;0.610962;-0.175563
5.430;0.560256;-0.139913
5.440;0.499967;-0.110765
5.450;0.431288;-0.086908
5.460;0.356527;-0.065289
5.470;0.279166;-0.041370
5.480;0.203629;-0.009952
5.490;0.134700;0.033677
5.500;0.076701;0.092591
5.510;0.032719;0.167418
5.520;0.004179;0.256125
5.530;-0.009092;0.354397
5.540;-0.008433;0.456462
5.550;0.004173;0.556125
5.560;0.026519;0.647793
5.570;0.056435;0.727304
5.580;0.091991;0.792446
5.590;0.131710;0.843111
5.600;0.174757;0.881111
5.610;0.220992;0.909701
5.620;0.270788;0.932831
5.630;0.324591;0.954181
5.640;0.382335;0.976145
5.650;0.442922;0.999100
5.660;0.503971;1.021264
5.670;0.561967;1.039274
5.680;0.612782;1.049307
5.690;0.652410;1.048348
5.700;0.677739;1.035173
5.710;0.687135;1.010741
5.720;0.680714;0.977904
5.730;0.660217;0.940536
5.740;0.628566;0.902378
5.750;0.589259;0.866002
5.760;0.545797;0.832287
5.770;0.501291;0.800592
5.780;0.458311;0.769534
5.790;0.418966;0.738022
5.800;0.385113;0.706050
5.810;0.358548;0.674910
5.820;0.340997;0.646699
5.830;0.333859;0.623331
5.840;0.337787;0.605523
5.850;0.352346;0.592234
5.860;0.376002;0.580890
5.870;0.406524;0.568306
5.880;0.441658;0.551918
5.890;0.479774;0.530777
5.900;0.520216;0.505930
5.910;0.563205;0.480053
5.920;0.609347;0.456443
5.930;0.658949;0.437724
5.940;0.711439;0.424710
5.950;0.765117;0.415865
5.960;0.817382;0.407604
5.970;0.865329;0.395328
5.980;0.906476;0.374861
5.990;0.939279;0.343786
6.000;0.963263;0.302268
6.010;0.978739;0.253070
6.020;0.986327;0.200796
6.030;0.986532;0.150602
6.040;0.979565;0.106842
6.050;0.965453;0.072041
6.060;0.944335;0.046428
6.070;0.916723;0.028072
6.080;0.883618;0.013523
6.090;0.846425;-0.001228
6.100;0.806698;-0.019718
6.110;0.765799;-0.044196
6.120;0.724492;-0.075306
6.130;0.682558;-0.112385
6.140;0.638529;-0.154274
6.150;0.589697;-0.200264
6.160;0.532497;-0.250739
6.170;0.463326;-0.307166
6.180;0.379664;-0.371393
6.190;0.281253;-0.444503
6.200;0.170926;-0.525697
6.210;0.054691;-0.611703
6.220;-0.059194;-0.697078
6.230;-0.162029;-0.775386
6.240;-0.246834;-0.840760
6.250;-0.310018;-0.889162
6.260;-0.351935;-0.918821
6.270;-0.376165;-0.929857
6.280;-0.387936;-0.923508
6.290;-0.392340;-0.901492
6.300;-0.392948;-0.865770
6.310;-0.391172;-0.818688
6.320;-0.386454;-0.763248
6.330;-0.377132;-0.703172
6.340;-0.361600;-0.642595
6.350;-0.339308;-0.585411
6.360;-0.311242;-0.534499
6.370;-0.279728;-0.491150
6.380;-0.247691;-0.454915
6.390;-0.217695;-0.423891
6.400;-0.191132;-0.395272
6.410;-0.167881;-0.365947
6.420;-0.146530;-0.332991
6.430;-0.125027;-0.294045
6.440;-0.101444;-0.247600
6.450;-0.074536;-0.193229
6.460;-0.043913;-0.131708
6.470;-0.009914;-0.064960
6.480;0.026599;0.004210
6.490;0.064351;0.072554
6.500;0.101624;0.136937
6.510;0.136195;0.194907
6.520;0.165395;0.245157
6.530;0.186347;0.287729
6.540;0.196360;0.323843
6.550;0.193337;0.355343
6.560;0.176044;0.383894
6.570;0.144107;0.410184
6.580;0.097716;0.433445
6.590;0.037185;0.451570
6.600;-0.037393;0.461859
6.610;-0.126150;0.462154
6.620;-0.229027;0.451907
6.630;-0.345134;0.432748
6.640;-0.472208;0.408317
6.650;-0.606477;0.383423
6.660;-0.743035;0.362844
6.670;-0.876593;0.350186
6.680;-1.002330;0.347144
6.690;-1.116603;0.353331
6.700;-1.217320;0.366580
6.710;-1.303877;0.383612
6.720;-1.376700;0.400886
6.730;-1.436598;0.415441
6.740;-1.484276;0.425449
6.750;-1.520243;0.430326
6.760;-1.545106;0.430431
6.770;-1.559975;0.426599
6.780;-1.566654;0.419799
6.790;-1.567486;0.411029
6.800;-1.564951;0.401347
6.810;-1.561263;0.391821
6.820;-1.558143;0.383262
6.830;-1.556839;0.375825
6.840;-1.558292;0.368721
6.850;-1.563309;0.360229
6.860;-1.572624;0.348046
6.870;-1.586763;0.329762
6.880;-1.605731;0.303201
6.890;-1.628592;0.266459
6.900;-1.653120;0.217748
6.910;-1.675739;0.155304
6.920;-1.691939;0.077626
6.930;-1.697168;-0.015853
6.940;-1.687948;-0.123865
6.950;-1.662712;-0.242598
6.960;-1.621941;-0.365654
6.970;-1.567523;-0.484896
6.980;-1.501708;-0.592058
6.990;-1.426228;-0.680633
7.000;-1.341959;-0.747476
7.010;-1.249199;-0.793571
7.020;-1.148267;-0.823660
7.030;-1.039999;-0.844758
7.040;-0.925832;-0.863999
7.050;-0.807481;-0.886501
7.060;-0.686477;-0.913955
7.070;-0.563955;-0.944401
7.080;-0.440911;-0.973208
7.090;-0.318851;-0.994953
7.100;-0.200464;-1.005493
7.110;-0.089850;-1.003445
7.120;0.007949;-0.990525
7.130;0.088034;-0.970723
7.140;0.146922;-0.948841
7.150;0.183472;-0.929048
7.160;0.199097;-0.913967
7.170;0.197176;-0.904466
7.180;0.181931;-0.900005
7.190;0.157236;-0.899258
7.200;0.125765;-0.900676
7.210;0.088690;-0.902822
7.220;0.045913;-0.904450
7.230;-0.003355;-0.904442
7.240;-0.059861;-0.901753
7.250;-0.123617;-0.895430
7.260;-0.193433;-0.884775
7.270;-0.266851;-0.869593
7.280;-0.340578;-0.850429
7.290;-0.411274;-0.828651
7.300;-0.476402;-0.806270
7.310;-0.534798;-0.785484
7.320;-0.586781;-0.768063
7.330;-0.633848;-0.754806
7.340;-0.678149;-0.745294
7.350;-0.721943;-0.738076
7.360;-0.767165;-0.731196
7.370;-0.815157;-0.722790
7.380;-0.866590;-0.711485
7.390;-0.921552;-0.696433
7.400;-0.979746;-0.677100
7.410;-1.040720;-0.652993
7.420;-1.104027;-0.623550
7.430;-1.169309;-0.588234
7.440;-1.236332;-0.546724
7.450;-1.305117;-0.499087
7.460;-1.376262;-0.445802
7.470;-1.451469;-0.387621
7.480;-1.534022;-0.325246
7.490;-1.628873;-0.258979
7.500;-1.741962;-0.188484
7.510;-1.878684;-0.112893
7.520;-2.041729;-0.031343
7.530;-2.228899;0.056137
7.540;-2.431770;0.147767
7.550;-2.636136;0.239668
7.560;-2.824705;0.326426
7.570;-2.981522;0.402520
7.580;-3.096400;0.464025
7.590;-3.167356;0.509795
7.600;-3.200037;0.541676
7.610;-3.204832;0.563869
7.620;-3.193315;0.581920
7.630;-3.175488;0.601685
7.640;-3.158382;0.628403
7.650;-3.145849;0.665871
7.660;-3.139022;0.715731
7.670;-3.137022;0.776999
7.680;-3.137667;0.846033
7.690;-3.138169;0.917079
7.700;-3.135856;0.983402
7.710;-3.128890;1.038769
7.720;-3.116850;1.078880
7.730;-3.100982;1.102337
7.740;-3.083994;1.110845
7.750;-3.069433;1.108601
7.760;-3.060818;1.101067
7.770;-3.060786;1.093551
7.780;-3.070513;1.090028
7.790;-3.089544;1.092572
7.800;-3.116035;1.101541
7.810;-3.147259;1.116365
7.820;-3.180168;1.136508
7.830;-3.211853;1.162143
7.840;-3.239846;1.194255
7.850;-3.262280;1.234223
7.860;-3.277987;1.283165
7.870;-3.286561;1.341331
7.880;-3.288368;1.407804
7.890;-3.284445;1.480546
7.900;-3.276293;1.556712
7.910;-3.265605;1.633031
7.920;-3.254018;1.706120
7.930;-3.242920;1.772693
7.940;-3.233323;1.829738
7.950;-3.225811;1.874746
7.960;-3.220576;1.906040
7.970;-3.217599;1.923166
7.980;-3.216918;1.927215
7.990;-3.218906;1.920915
8.000;-3.224420;1.908370
8.010;-3.234692;1.894446
8.020;-3.250964;1.883949
