Time[s];COPx[cm];COPy[cm]
0.010;-0.626766;0.759229
0.020;-0.671563;0.744168
0.030;-0.714540;0.730032
0.040;-0.754078;0.717559
0.050;-0.788666;0.707222
0.060;-0.817043;0.699149
0.070;-0.838349;0.693138
0.080;-0.852190;0.688782
0.090;-0.858605;0.685659
0.100;-0.857928;0.683496
0.110;-0.850615;0.682222
0.120;-0.837099;0.681872
0.130;-0.817724;0.682394
0.140;-0.792785;0.683455
0.150;-0.762636;0.684357
0.160;-0.727802;0.684140
0.170;-0.689041;0.681848
0.180;-0.647318;0.676835
0.190;-0.603762;0.668982
0.200;-0.559633;0.658758
0.210;-0.516332;0.647105
0.220;-0.475384;0.635185
0.230;-0.438323;0.624049
0.240;-0.406478;0.614328
0.250;-0.380736;0.606040
0.260;-0.361363;0.598581
0.270;-0.347983;0.590888
0.280;-0.339698;0.581715
0.290;-0.335321;0.569933
0.300;-0.333627;0.554801
0.310;-0.333563;0.536159
0.320;-0.334346;0.514468
0.330;-0.335434;0.490726
0.340;-0.336354;0.466232
0.350;-0.336491;0.442288
0.360;-0.334939;0.419869
0.370;-0.330507;0.399362
0.380;-0.321872;0.380451
0.390;-0.307829;0.362215
0.400;-0.287494;0.343432
0.410;-0.260413;0.322954
0.420;-0.226518;0.299984
0.430;-0.186014;0.274129
0.440;-0.139266;0.245239
0.450;-0.086776;0.213171
0.460;-0.029244;0.177651
0.470;0.032334;0.138300
0.480;0.096622;0.094780
0.490;0.162022;0.046982
0.500;0.226891;-0.004821
0.510;0.289796;-0.059894
0.520;0.349718;-0.117053
0.530;0.406117;-0.174745
0.540;0.458837;-0.231193
0.550;0.507893;-0.284560
0.560;0.553233;-0.333114
0.570;0.594560;-0.375358
0.580;0.631301;-0.410115
0.590;0.662742;-0.436557
0.600;0.688290;-0.454194
0.610;0.707773;-0.462843
0.620;0.721691;-0.462640
0.630;0.731287;-0.454074
0.640;0.738385;-0.438011
0.650;0.745015;-0.415660
0.660;0.752950;-0.388461
0.670;0.763353;-0.357954
0.680;0.776675;-0.325644
0.690;0.792821;-0.292905
0.700;0.811500;-0.260936
0.710;0.832594;-0.230781
0.720;0.856425;-0.203394
0.730;0.883827;-0.179665
0.740;0.916036;-0.160353
0.750;0.954399;-0.145932
0.760;0.999970;-0.136404
0.770;1.053096;-0.131194
0.780;1.113138;-0.129236
0.790;1.178457;-0.129260
0.800;1.246677;-0.130166
0.810;1.315116;-0.131305
0.820;1.381212;-0.132494
0.830;1.442806;-0.133813
0.840;1.498259;-0.135293
0.850;1.546453;-0.136707
0.860;1.586780;-0.137528
0.870;1.619171;-0.137074
0.880;1.644105;-0.134722
0.890;1.662556;-0.130095
0.900;1.675831;-0.123113
0.910;1.685341;-0.113871
0.920;1.692327;-0.102440
0.930;1.697639;-0.088674
0.940;1.701645;-0.072180
0.950;1.704330;-0.052438
0.960;1.705555;-0.029036
0.970;1.705383;-0.001902
0.980;1.704346;0.028533
0.990;1.703549;0.061306
1.000;1.704601;0.095033
1.010;1.709386;0.128164
1.020;1.719741;0.159331
1.030;1.737143;0.187680
1.040;1.762473;0.213054
1.050;1.795875;0.235962
1.060;1.836723;0.257341
1.070;1.883694;0.278256
1.080;1.934935;0.299658
1.090;1.988295;0.322250
1.100;2.041594;0.346413
1.110;2.092843;0.372153
1.120;2.140372;0.399084
1.130;2.182814;0.426501
1.140;2.219021;0.453588
1.150;2.248033;0.479692
1.160;2.269161;0.504554
1.170;2.282149;0.528413
1.180;2.287274;0.551941
1.190;2.285287;0.576057
1.200;2.277170;0.601712
1.210;2.263772;0.629725
1.220;2.245462;0.660711
1.230;2.221888;0.695101
1.240;2.191948;0.733193
1.250;2.153989;0.775184
1.260;2.106202;0.821147
1.270;2.047155;0.870950
1.280;1.976331;0.924143
1.290;1.894559;0.979861
1.300;1.804184;1.036808
1.310;1.708852;1.093382
1.320;1.612892;1.147914
1.330;1.520395;1.198955
1.340;1.434295;1.245489
1.350;1.355794;1.287003
1.360;1.284370;1.323413
1.370;1.218338;1.354912
1.380;1.155675;1.381848
1.390;1.094795;1.404651
1.400;1.035054;1.423799
1.410;0.976911;1.439781
1.420;0.921761;1.453040
1.430;0.871525;1.463905
1.440;0.828102;1.472552
1.450;0.792831;1.478996
1.460;0.766102;1.483092
1.470;0.747244;1.484555
1.480;0.734680;1.483008
1.490;0.726295;1.478082
1.500;0.719862;1.469553
1.510;0.713410;1.457480
1.520;0.705408;1.442306
1.530;0.694765;1.424935
1.540;0.680662;1.406745
1.550;0.662366;1.389481
1.560;0.639119;1.375009
1.570;0.610185;1.364984
1.580;0.575045;1.360540
1.590;0.533678;1.362107
1.600;0.486820;1.369430
1.610;0.436106;1.381790
1.620;0.383929;1.398320
1.630;0.332983;1.418318
1.640;0.285517;1.441450
1.650;0.242583;1.467817
1.660;0.203571;1.497932
1.670;0.166259;1.532588
1.680;0.127380;1.572605
1.690;0.083562;1.618428
1.700;0.032388;1.669670
1.710;-0.026695;1.724741
1.720;-0.091873;1.780789
1.730;-0.159119;1.834104
1.740;-0.223090;1.880968
1.750;-0.278583;1.918691
1.760;-0.322028;1.946394
1.770;-0.352395;1.965186
1.780;-0.371141;1.977643
1.790;-0.381299;1.986859
1.800;-0.386174;1.995485
1.810;-0.388181;2.005089
1.820;-0.388213;2.015963
1.830;-0.385650;2.027334
1.840;-0.378888;2.037807
1.850;-0.366156;2.045870
1.860;-0.346316;2.050280
1.870;-0.319390;2.050230
1.880;-0.286654;2.045309
1.890;-0.250256;2.035352
1.900;-0.212519;2.020326
1.910;-0.175224;2.000311
1.920;-0.139168;1.975568
1.930;-0.104174;1.946605
1.940;-0.069502;1.914196
1.950;-0.034444;1.879311
1.960;0.001186;1.842986
1.970;0.036847;1.806140
1.980;0.071382;1.769415
1.990;0.103338;1.733080
2.000;0.131345;1.697099
2.010;0.154446;1.661377
2.020;0.172260;1.626071
2.030;0.184940;1.591804
2.040;0.192984;1.559598
2.050;0.196983;1.530515
2.060;0.197442;1.505201
2.070;0.194710;1.483570
2.080;0.189012;1.464806
2.090;0.180515;1.447668
2.100;0.169366;1.430926
2.110;0.155709;1.413734
2.120;0.139710;1.395771
2.130;0.121611;1.377112
2.140;0.101817;1.357908
2.150;0.080956;1.338070
2.160;0.059879;1.317126
2.170;0.039568;1.294329
2.180;0.020997;1.268963
2.190;0.005035;1.240692
2.200;-0.007541;1.209810
2.210;-0.015932;1.177260
2.220;-0.019198;1.144465
2.230;-0.016301;1.113053
2.240;-0.006359;1.084613
2.250;0.010958;1.060548
2.260;0.035103;1.041997
2.270;0.064615;1.029792
2.280;0.097418;1.024395
2.290;0.131341;1.025846
2.300;0.164616;1.033769
2.310;0.196165;1.047428
2.320;0.225639;1.065853
2.330;0.253262;1.087998
2.340;0.279570;1.112906
2.350;0.305114;1.139807
2.360;0.330168;1.168128
2.370;0.354540;1.197403
2.380;0.377533;1.227142
2.390;0.398059;1.256735
2.400;0.414843;1.285476
2.410;0.426647;1.312694
2.420;0.432472;1.337930
2.430;0.431712;1.361028
2.440;0.424249;1.382083
2.450;0.410476;1.401301
2.460;0.391254;1.418842
2.470;0.367805;1.434760
2.480;0.341543;1.449018
2.490;0.313916;1.461576
2.500;0.286274;1.472518
2.510;0.259818;1.482180
2.520;0.235589;1.491216
2.530;0.214483;1.500541
2.540;0.197230;1.511156
2.550;0.184360;1.523944
2.560;0.176171;1.539516
2.570;0.172749;1.558168
2.580;0.174016;1.579902
2.590;0.179799;1.604464
2.600;0.189865;1.631353
2.610;0.203912;1.659822
2.620;0.221510;1.688921
2.630;0.242030;1.717645
2.640;0.264607;1.745146
2.650;0.288171;1.770956
2.660;0.311533;1.795071
2.670;0.333518;1.817864
2.680;0.353085;1.839837
2.690;0.369427;1.861350
2.700;0.382035;1.882443
2.710;0.390754;1.902842
2.720;0.395792;1.922100
2.730;0.397692;1.939796
2.740;0.397228;1.955661
2.750;0.395255;1.969596
2.760;0.392551;1.981589
2.770;0.389714;1.991617
2.780;0.387119;1.999578
2.790;0.384942;2.005289
2.800;0.383235;2.008505
2.810;0.382009;2.008938
2.820;0.381322;2.006300
2.830;0.381338;2.000359
2.840;0.382376;1.991002
2.850;0.384925;1.978288
2.860;0.389642;1.962455
2.870;0.397259;1.943890
2.880;0.408413;1.923060
2.890;0.423399;1.900407
2.900;0.441973;1.876235
2.910;0.463292;1.850622
2.920;0.486071;1.823392
2.930;0.508891;1.794193
2.940;0.530566;1.762644
2.950;0.550405;1.728496
2.960;0.568306;1.691729
2.970;0.584627;1.652542
2.980;0.599894;1.611278
2.990;0.614451;1.568346
3.000;0.628198;1.524236
3.010;0.640521;1.479577
3.020;0.650456;1.435156
3.030;0.657017;1.391796
3.040;0.659545;1.350127
3.050;0.657948;1.310352
3.060;0.652721;1.272153
3.070;0.644781;1.234782
3.080;0.635175;1.197312
3.090;0.624790;1.158957
3.100;0.614145;1.119357
3.110;0.603331;1.078767
3.120;0.592113;1.038092
3.130;0.580154;0.998778
3.140;0.567277;0.962587
3.150;0.553657;0.931281
3.160;0.539846;0.906270
3.170;0.526626;0.888270
3.180;0.514758;0.877065
3.190;0.504698;0.871500
3.200;0.496396;0.869766
3.210;0.489245;0.869948
3.220;0.482196;0.870611
3.230;0.473986;0.871227
3.240;0.463394;0.872264
3.250;0.449425;0.874936
3.260;0.431414;0.880722
3.270;0.409088;0.890835
3.280;0.382638;0.905804
3.290;0.352856;0.925259
3.300;0.321239;0.947981
3.310;0.289971;0.972183
3.320;0.261665;0.995946
3.330;0.238865;1.017685
3.340;0.223469;1.036523
3.350;0.216283;1.052468
3.360;0.216943;1.066333
3.370;0.224256;1.079384
3.380;0.236836;1.092799
3.390;0.253738;1.107111
3.400;0.274834;1.121843
3.410;0.300785;1.135514
3.420;0.332664;1.146026
3.430;0.371394;1.151279
3.440;0.417239;1.149761
3.450;0.469508;1.140880
3.460;0.526563;1.124945
3.470;0.586099;1.102867
3.480;0.645582;1.075748
3.490;0.702734;1.044562
3.500;0.755900;1.010030
3.510;0.804201;0.972694
3.520;0.847399;0.933095
3.530;0.885554;0.891962
3.540;0.918650;0.850328
3.550;0.946387;0.809525
3.560;0.968210;0.771027
3.570;0.983531;0.736170
3.580;0.991981;0.705816
3.590;0.993602;0.680120
3.600;0.988893;0.658514
3.610;0.978734;0.639924
3.620;0.964206;0.623127
3.630;0.946353;0.607072
3.640;0.925986;0.591091
3.650;0.903577;0.574942
3.660;0.879288;0.558745
3.670;0.853076;0.542872
3.680;0.824840;0.527825
3.690;0.794547;0.514123
3.700;0.762339;0.502215
3.710;0.728616;0.492467
3.720;0.694084;0.485223
3.730;0.659767;0.480922
3.740;0.626943;0.480150
3.750;0.596994;0.483527
3.760;0.571192;0.491453
3.770;0.550489;0.503806
3.780;0.535386;0.519774
3.790;0.525902;0.537940
3.800;0.521646;0.556598
3.810;0.521921;0.574192
3.820;0.525842;0.589690
3.830;0.532446;0.602745
3.840;0.540780;0.613643
3.850;0.549980;0.623122
3.860;0.559339;0.632164
3.870;0.568331;0.641810
3.880;0.576586;0.652985
3.890;0.583831;0.666356
3.900;0.589797;0.682241
3.910;0.594170;0.700601
3.920;0.596580;0.721110
3.930;0.596669;0.743268
3.940;0.594195;0.766525
3.950;0.589119;0.790387
3.960;0.581650;0.814487
3.970;0.572236;0.838607
3.980;0.561501;0.862632
3.990;0.550156;0.886435
4.000;0.538905;0.909754
4.010;0.528367;0.932139
4.020;0.519019;0.952986
4.030;0.511149;0.971639
4.040;0.504824;0.987509
4.050;0.499913;1.000143
4.060;0.496152;1.009251
4.070;0.493279;1.014703
4.080;0.491159;1.016556
4.090;0.489867;1.015100
4.100;0.489667;1.010893
4.110;0.490899;1.004739
4.120;0.493790;0.997562
4.130;0.498254;0.990208
4.140;0.503769;0.983264
4.150;0.509399;0.977002
4.160;0.513958;0.971475
4.170;0.516264;0.966742
4.180;0.515381;0.963052
4.190;0.510819;0.960857
4.200;0.502645;0.960659
4.210;0.491486;0.962786
4.220;0.478381;0.967266
4.230;0.464505;0.973860
4.240;0.450853;0.982226
4.250;0.438006;0.992115
4.260;0.426069;1.003514
4.270;0.414797;1.016705
4.280;0.403837;1.032253
4.290;0.393014;1.050949
4.300;0.382576;1.073700
4.310;0.373327;1.101362
4.320;0.366593;1.134516
4.330;0.364036;1.173263
4.340;0.367339;1.217173
4.350;0.377832;1.265456
4.360;0.396162;1.317268
4.370;0.422084;1.371968
4.380;0.454459;1.429180
4.390;0.491455;1.488634
4.400;0.530905;1.549918
4.410;0.570726;1.612305
4.420;0.609284;1.674747
4.430;0.645586;1.736058
4.440;0.679290;1.795200
4.450;0.710542;1.851597
4.460;0.739720;1.905351
4.470;0.767162;1.957257
4.480;0.792944;2.008577
4.490;0.816745;2.060606
4.500;0.837858;2.114238
4.510;0.855330;2.169699
4.520;0.868204;2.226568
4.530;0.875798;2.284050
4.540;0.877932;2.341325
4.550;0.875030;2.397796
4.560;0.868064;2.453145
4.570;0.858355;2.507198
4.580;0.847286;2.559745
4.590;0.836059;2.610413
4.600;0.825580;2.658678
4.610;0.816509;2.703956
4.620;0.809407;2.745711
4.630;0.804889;2.783494
4.640;0.803661;2.816914
4.650;0.806424;2.845609
4.660;0.813685;2.869263
4.670;0.825580;2.887714
4.680;0.841784;2.901071
4.690;0.861529;2.909773
4.700;0.883715;2.914524
4.710;0.907069;2.916121
4.720;0.930306;2.915244
4.730;0.952253;2.912255
4.740;0.971921;2.907082
4.750;0.988527;2.899250
4.760;1.001500;2.888067
4.770;1.010468;2.872905
4.780;1.015239;2.853453
4.790;1.015756;2.829808
4.800;1.012056;2.802422
4.810;1.004224;2.771926
4.820;0.992400;2.738907
4.830;0.976839;2.703722
4.840;0.958029;2.666403
4.850;0.936770;2.626722
4.860;0.914172;2.584376
4.870;0.891512;2.539204
4.880;0.870018;2.491300
4.890;0.850650;2.440968
4.900;0.833984;2.388526
4.910;0.820234;2.334030
4.920;0.809375;2.277046
4.930;0.801291;2.216577
4.940;0.795866;2.151213
4.950;0.792972;2.079473
4.960;0.792405;2.000218
4.970;0.793828;1.912993
4.980;0.796774;1.818170
4.990;0.800705;1.716834
5.000;0.805083;1.610455
5.010;0.809409;1.500455
5.020;0.813176;1.387827
5.030;0.815742;1.272985
5.040;0.816182;1.155917
5.050;0.813188;1.036571
5.060;0.805154;0.915300
5.070;0.790440;0.793191
5.080;0.767812;0.672205
5.090;0.736902;0.555136
5.100;0.698531;0.445398
5.110;0.654763;0.346615
5.120;0.608574;0.262040
5.130;0.563227;0.193864
5.140;0.521497;0.142660
5.150;0.485037;0.107171
5.160;0.454126;0.084545
5.170;0.427876;0.070954
5.180;0.404783;0.062373
5.190;0.383351;0.055295
5.200;0.362560;0.047185
5.210;0.342075;0.036624
5.220;0.322215;0.023162
5.230;0.303749;0.006978
5.240;0.287624;-0.011514
5.250;0.274687;-0.032012
5.260;0.265463;-0.054523
5.270;0.259989;-0.079386
5.280;0.257721;-0.107108
5.290;0.257492;-0.138077
5.300;0.257610;-0.172265
5.310;0.256070;-0.209068
5.320;0.250897;-0.247387
5.330;0.240502;-0.285969
5.340;0.223943;-0.323853
5.350;0.201008;-0.360695
5.360;0.172103;-0.396780
5.370;0.138051;-0.432692
5.380;0.099913;-0.468810
5.390;0.058929;-0.504820
5.400;0.016548;-0.539407
5.410;-0.025518;-0.570239
5.420;-0.065343;-0.594251
5.430;-0.100974;-0.608233
5.440;-0.130766;-0.609585
5.450;-0.153738;-0.597008
5.460;-0.169795;-0.570880
5.470;-0.179695;-0.533121
5.480;-0.184715;-0.486583
5.490;-0.186154;-0.434199
5.500;-0.184858;-0.378236
5.510;-0.180960;-0.319952
5.520;-0.173936;-0.259749
5.530;-0.162903;-0.197760
5.540;-0.146990;-0.134583
5.550;-0.125659;-0.071844
5.560;-0.098881;-0.012287
5.570;-0.067197;0.040656
5.580;-0.031659;0.083693
5.590;0.006317;0.114566
5.600;0.045178;0.132681
5.610;0.083457;0.139250
5.620;0.119942;0.136916
5.630;0.153722;0.129021
5.640;0.184132;0.118792
5.650;0.210662;0.108704
5.660;0.232892;0.100172
5.670;0.250507;0.093586
5.680;0.263386;0.088613
5.690;0.271702;0.084603
5.700;0.275993;0.080951
5.710;0.277130;0.077325
5.720;0.276229;0.073717
5.730;0.274509;0.070349
5.740;0.273159;0.067467
5.750;0.273199;0.065140
5.760;0.275370;0.063137
5.770;0.280047;0.060939
5.780;0.287216;0.057886
5.790;0.296524;0.053416
5.800;0.307405;0.047324
5.810;0.319227;0.039940
5.820;0.331422;0.032151
5.830;0.343552;0.025212
5.840;0.355288;0.020409
5.850;0.366325;0.018688
5.860;0.376272;0.020389
5.870;0.384587;0.025209
5.880;0.390584;0.032379
5.890;0.393535;0.040985
5.900;0.392832;0.050272
5.910;0.388156;0.059802
5.920;0.379587;0.069455
5.930;0.367603;0.079311
5.940;0.352927;0.089490
5.950;0.336297;0.100029
5.960;0.318241;0.110786
5.970;0.298986;0.121402
5.980;0.278513;0.131339
5.990;0.256741;0.140033
6.000;0.233733;0.147131
6.010;0.209851;0.152713
6.020;0.185794;0.157380
6.030;0.162518;0.162143
6.040;0.141051;0.168150
6.050;0.122303;0.176372
6.060;0.106915;0.187357
6.070;0.095198;0.201119
6.080;0.087128;0.217196
6.090;0.082389;0.234858
6.100;0.080452;0.253386
6.110;0.080674;0.272313
6.120;0.082425;0.291539
6.130;0.085216;0.311295
6.140;0.088774;0.331973
6.150;0.093043;0.353893
6.160;0.098097;0.377106
6.170;0.104010;0.401364
6.180;0.110742;0.426306
6.190;0.118088;0.451751
6.200;0.125705;0.477901
6.210;0.133178;0.505302
6.220;0.140090;0.534568
6.230;0.146069;0.566031
6.240;0.150792;0.599494
6.250;0.153979;0.634218
6.260;0.155371;0.669115
6.270;0.154742;0.703065
6.280;0.151906;0.735179
6.290;0.146734;0.764922
6.300;0.139133;0.792092
6.310;0.129013;0.816725
6.320;0.116241;0.839015
6.330;0.100618;0.859249
6.340;0.081904;0.877723
6.350;0.059908;0.894612
6.360;0.034642;0.909835
6.370;0.006458;0.922962
6.380;-0.023895;0.933249
6.390;-0.055371;0.939824
6.400;-0.086846;0.941987
6.410;-0.117369;0.939504
6.420;-0.146335;0.932792
6.430;-0.173516;0.922880
6.440;-0.198953;0.911164
6.450;-0.222784;0.899039
6.460;-0.245108;0.887544
6.470;-0.265945;0.877148
6.480;-0.285289;0.867756
6.490;-0.303202;0.858912
6.500;-0.319862;0.850119
6.510;-0.335546;0.841149
6.520;-0.350537;0.832217
6.530;-0.365011;0.823976
6.540;-0.378966;0.817338
6.550;-0.392236;0.813192
6.560;-0.404602;0.812135
6.570;-0.415956;0.814318
6.580;-0.426458;0.819447
6.590;-0.436625;0.826912
6.600;-0.447302;0.835978
6.610;-0.459542;0.845981
6.620;-0.474405;0.856503
6.630;-0.492761;0.867465
6.640;-0.515136;0.879113
6.650;-0.541648;0.891866
6.660;-0.572034;0.906054
6.670;-0.605722;0.921647
6.680;-0.641936;0.938116
6.690;-0.679769;0.954493
6.700;-0.718238;0.969624
6.710;-0.756337;0.982482
6.720;-0.793102;0.992450
6.730;-0.827696;0.999456
6.740;-0.859457;1.003923
6.750;-0.887875;1.006533
6.760;-0.912519;1.007919
6.770;-0.932983;1.008429
6.780;-0.948876;1.008077
6.790;-0.959894;1.006686
6.800;-0.965910;1.004101
6.810;-0.967058;1.000331
6.820;-0.963745;0.995585
6.830;-0.956605;0.990206
6.840;-0.946414;0.984597
6.850;-0.934025;0.979195
6.860;-0.920350;0.974487
6.870;-0.906367;0.971045
6.880;-0.893132;0.969514
6.890;-0.881737;0.970531
6.900;-0.873231;0.974586
6.910;-0.868490;0.981882
6.920;-0.868086;0.992260
6.930;-0.872203;1.005285
6.940;-0.880624;1.020470
6.950;-0.892799;1.037574
6.960;-0.907968;1.056855
6.970;-0.925298;1.079145
6.980;-0.944001;1.105702
6.990;-0.963437;1.137830
7.000;-0.983151;1.176397
7.010;-1.002843;1.221395
7.020;-1.022259;1.271740
7.030;-1.041077;1.325427
7.040;-1.058826;1.380016
7.050;-1.074867;1.433271
7.060;-1.088424;1.483780
7.070;-1.098656;1.531335
7.080;-1.104757;1.576964
7.090;-1.106070;1.622579
7.100;-1.102178;1.670329
7.110;-1.092960;1.721874
7.120;-1.078616;1.777827
7.130;-1.059679;1.837585
7.140;-1.036996;1.899550
7.150;-1.011656;1.961622
7.160;-0.984872;2.021730
7.170;-0.957814;2.078216
7.180;-0.931445;2.130003
7.190;-0.906398;2.176567
7.200;-0.882957;2.217837
7.210;-0.861142;2.254109
7.220;-0.840890;2.285987
7.230;-0.822261;2.314319
7.240;-0.805584;2.340070
7.250;-0.791498;2.364159
7.260;-0.780848;2.387297
7.270;-0.774481;2.409898
7.280;-0.773031;2.432077
7.290;-0.776769;2.453718
7.300;-0.785604;2.474592
7.310;-0.799201;2.494499
7.320;-0.817157;2.513396
7.330;-0.839124;2.531482
7.340;-0.864846;2.549169
7.350;-0.894110;2.566952
7.360;-0.926682;2.585229
7.370;-0.962252;2.604161
7.380;-1.000396;2.623629
7.390;-1.040525;2.643265
7.400;-1.081800;2.662489
7.410;-1.123040;2.680538
7.420;-1.162743;2.696502
7.430;-1.199262;2.709417
7.440;-1.231138;2.718418
7.450;-1.257453;2.722906
7.460;-1.278067;2.722648
7.470;-1.293623;2.717790
7.480;-1.305350;2.708811
7.490;-1.314703;2.696464
7.500;-1.322983;2.681714
7.510;-1.331004;2.665646
7.520;-1.338914;2.649312
7.530;-1.346218;2.633555
7.540;-1.351993;2.618855
7.550;-1.355228;2.605281
7.560;-1.355157;2.592557
7.570;-1.351455;2.580238
7.580;-1.344238;2.567928
7.590;-1.333932;2.555440
7.600;-1.321072;2.542794
7.610;-1.306139;2.530068
7.620;-1.289479;2.517176
7.630;-1.271290;2.503722
7.640;-1.251642;2.489031
7.650;-1.230471;2.472337
7.660;-1.207546;2.452986
7.670;-1.182433;2.430582
7.680;-1.154542;2.405005
7.690;-1.123297;2.376381
7.700;-1.088377;2.345074
7.710;-1.049948;2.311708
7.720;-1.008722;2.277209
7.730;-0.965832;2.242816
7.740;-0.922514;2.210022
7.750;-0.879741;2.180406
7.760;-0.837939;2.155346
7.770;-0.796893;2.135667
7.780;-0.755889;2.121361
7.790;-0.714027;2.111521
7.800;-0.670575;2.104549
7.810;-0.625227;2.098584
7.820;-0.578174;2.091982
7.830;-0.530002;2.083684
7.840;-0.481525;2.073365
7.850;-0.433645;2.061339
7.860;-0.387313;2.048281
7.870;-0.343531;2.034850
7.880;-0.303324;2.021392
7.890;-0.267588;2.007811
7.900;-0.236845;1.993671
7.910;-0.211028;1.978464
7.920;-0.189415;1.961934
7.930;-0.170781;1.944301
7.940;-0.153694;1.926282
7.950;-0.136834;1.908880
7.960;-0.119205;1.893010
7.970;-0.100216;1.879131
7.980;-0.079630;1.867031
7.990;-0.057471;1.855828
8.000;-0.033897;1.844193
8.010;-0.009100;1.830705
8.020;0.016775;1.814264
8.030;0.043663;1.794419
8.040;0.071566;1.771474
8.050;0.100491;1.746333
8.060;0.130383;1.720172
8.070;0.161071;1.694117
8.080;0.192272;1.669065
8.090;0.223628;1.645711
8.100;0.254784;1.624682
8.110;0.285468;1.606652
8.120;0.315598;1.592321
8.130;0.345365;1.582260
8.140;0.375258;1.576720
8.150;0.405963;1.575513
8.160;0.438159;1.578029
8.170;0.472292;1.583400
8.180;0.508413;1.590704
