Time[s];COPx[cm];COPy[cm]
0.010;0.812556;-2.078046
0.020;0.838465;-2.052554
0.030;0.866228;-2.028300
0.040;0.897300;-2.006474
0.050;0.932656;-1.987949
0.060;0.972591;-1.973187
0.070;1.016645;-1.962269
0.080;1.063747;-1.954976
0.090;1.112515;-1.950913
0.100;1.161618;-1.949609
0.110;1.210023;-1.950565
0.120;1.257028;-1.953247
0.130;1.302128;-1.957000
0.140;1.344857;-1.960975
0.150;1.384713;-1.964179
0.160;1.421241;-1.965665
0.170;1.454202;-1.964785
0.180;1.483739;-1.961358
0.190;1.510457;-1.955666
0.200;1.535391;-1.948306
0.210;1.559846;-1.939987
0.220;1.585134;-1.931399
0.230;1.612263;-1.923210
0.240;1.641644;-1.916122
0.250;1.672967;-1.910891
0.260;1.705315;-1.908215
0.270;1.737499;-1.908530
0.280;1.768477;-1.911808
0.290;1.797669;-1.917475
0.300;1.825039;-1.924490
0.310;1.850957;-1.931551
0.320;1.875925;-1.937337
0.330;1.900324;-1.940737
0.340;1.924268;-1.941017
0.350;1.947588;-1.937922
0.360;1.969912;-1.931710
0.370;1.990800;-1.923131
0.380;2.009890;-1.913362
0.390;2.027030;-1.903888
0.400;2.042375;-1.896341
0.410;2.056397;-1.892329
0.420;2.069783;-1.893278
0.430;2.083213;-1.900297
0.440;2.097116;-1.914049
0.450;2.111513;-1.934647
0.460;2.125996;-1.961634
0.470;2.139865;-1.994078
0.480;2.152369;-2.030741
0.490;2.162941;-2.070268
0.500;2.171329;-2.111335
0.510;2.177529;-2.152786
0.520;2.181560;-2.193780
0.530;2.183169;-2.233938
0.540;2.181651;-2.273420
0.550;2.175875;-2.312825
0.560;2.164525;-2.352931
0.570;2.146407;-2.394382
0.580;2.120676;-2.437461
0.590;2.086905;-2.482022
0.600;2.045026;-2.527565
0.610;1.995233;-2.573388
0.620;1.937934;-2.618779
0.630;1.873704;-2.663200
0.640;1.803233;-2.706421
0.650;1.727245;-2.748507
0.660;1.646496;-2.789620
0.670;1.561921;-2.829672
0.680;1.474916;-2.867996
0.690;1.387592;-2.903212
0.700;1.302792;-2.933405
0.710;1.223748;-2.956610
0.720;1.153499;-2.971374
0.730;1.094290;-2.977165
0.740;1.047235;-2.974472
0.750;1.012358;-2.964605
0.760;0.988955;-2.949328
0.770;0.976083;-2.930463
0.780;0.972962;-2.909548
0.790;0.979143;-2.887569
0.800;0.994431;-2.864808
0.810;1.018650;-2.840834
0.820;1.051428;-2.814662
0.830;1.092109;-2.785012
0.840;1.139852;-2.750609
0.850;1.193808;-2.710462
0.860;1.253250;-2.664102
0.870;1.317509;-2.611742
0.880;1.385749;-2.554344
0.890;1.456691;-2.493578
0.900;1.528496;-2.431704
0.910;1.598897;-2.371343
0.920;1.665551;-2.315151
0.930;1.726440;-2.265410
0.940;1.780149;-2.223636
0.950;1.825916;-2.190375
0.960;1.863475;-2.165269
0.970;1.892760;-2.147388
0.980;1.913625;-2.135630
0.990;1.925726;-2.129028
1.000;1.928609;-2.126838
1.010;1.921965;-2.128461
1.020;1.905922;-2.133267
1.030;1.881291;-2.140440
1.040;1.849671;-2.148907
1.050;1.813376;-2.157425
1.060;1.775174;-2.164828
1.070;1.737881;-2.170348
1.080;1.703914;-2.173881
1.090;1.674939;-2.176057
1.100;1.651669;-2.178075
1.110;1.633855;-2.181344
1.120;1.620470;-2.187071
1.130;1.610026;-2.195941
1.140;1.601007;-2.207980
1.150;1.592297;-2.222589
1.160;1.583504;-2.238717
1.170;1.575073;-2.255091
1.180;1.568095;-2.270484
1.190;1.563859;-2.283982
1.200;1.563291;-2.295190
1.210;1.566483;-2.304318
1.220;1.572496;-2.312109
1.230;1.579505;-2.319599
1.240;1.585212;-2.327808
1.250;1.587385;-2.337461
1.260;1.584322;-2.348829
1.270;1.575106;-2.361751
1.280;1.559631;-2.375809
1.290;1.538424;-2.390582
1.300;1.512373;-2.405899
1.310;1.482429;-2.422008
1.320;1.449382;-2.439598
1.330;1.413751;-2.459655
1.340;1.375760;-2.483143
1.350;1.335347;-2.510594
1.360;1.292153;-2.541753
1.370;1.245549;-2.575440
1.380;1.194812;-2.609719
1.390;1.139498;-2.642294
1.400;1.079911;-2.670996
1.410;1.017453;-2.694173
1.420;0.954651;-2.710903
1.430;0.894758;-2.721041
1.440;0.841015;-2.725125
1.450;0.795857;-2.724195
1.460;0.760325;-2.719552
1.470;0.733920;-2.712552
1.480;0.714859;-2.704465
1.490;0.700612;-2.696441
1.500;0.688495;-2.689516
1.510;0.676172;-2.684602
1.520;0.661969;-2.682387
1.530;0.645031;-2.683190
1.540;0.625326;-2.686832
1.550;0.603532;-2.692601
1.560;0.580835;-2.699338
1.570;0.558638;-2.705641
1.580;0.538214;-2.710153
1.590;0.520388;-2.711864
1.600;0.505344;-2.710346
1.610;0.492647;-2.705803
1.620;0.481450;-2.698905
1.630;0.470770;-2.690495
1.640;0.459714;-2.681315
1.650;0.447603;-2.671881
1.660;0.434008;-2.662520
1.670;0.418781;-2.653485
1.680;0.402110;-2.645041
1.690;0.384571;-2.637468
1.700;0.367094;-2.630984
1.710;0.350792;-2.625651
1.720;0.336665;-2.621323
1.730;0.325257;-2.617654
1.740;0.316421;-2.614160
1.750;0.309238;-2.610274
1.760;0.302148;-2.605412
1.770;0.293231;-2.599030
1.780;0.280609;-2.590719
1.790;0.262871;-2.580321
1.800;0.239458;-2.568042
1.810;0.210902;-2.554503
1.820;0.178839;-2.540687
1.830;0.145765;-2.527760
1.840;0.114562;-2.516772
1.850;0.087903;-2.508303
1.860;0.067713;-2.502172
1.870;0.054897;-2.497408
1.880;0.049406;-2.492570
1.890;0.050598;-2.486348
1.900;0.057706;-2.478139
1.910;0.070228;-2.468303
1.920;0.088156;-2.457949
1.930;0.112022;-2.448374
1.940;0.142860;-2.440434
1.950;0.182102;-2.434121
1.960;0.231437;-2.428535
1.970;0.292589;-2.422161
1.980;0.366986;-2.413287
1.990;0.455392;-2.400333
2.000;0.557633;-2.382004
2.010;0.672558;-2.357286
2.020;0.798270;-2.325396
2.030;0.932540;-2.285820
2.040;1.073209;-2.238486
2.050;1.218465;-2.184063
2.060;1.366883;-2.124202
2.070;1.517279;-2.061561
2.080;1.668432;-1.999465
2.090;1.818813;-1.941232
2.100;1.966403;-1.889406
2.110;2.108681;-1.845236
2.120;2.242737;-1.808635
2.130;2.365487;-1.778640
2.140;2.473925;-1.754113
2.150;2.565368;-1.734365
2.160;2.637670;-1.719439
2.170;2.689383;-1.710003
2.180;2.719857;-1.706928
2.190;2.729297;-1.710772
2.200;2.718783;-1.721360
2.210;2.690192;-1.737657
2.220;2.646003;-1.757977
2.230;2.588965;-1.780453
2.240;2.521713;-1.803580
2.250;2.446481;-1.826553
2.260;2.365010;-1.849294
2.270;2.278676;-1.872192
2.280;2.188789;-1.895732
2.290;2.096911;-1.920216
2.300;2.005074;-1.945684
2.310;1.915799;-1.972041
2.320;1.831894;-1.999294
2.330;1.756086;-2.027747
2.340;1.690608;-2.058038
2.350;1.636864;-2.090976
2.360;1.595266;-2.127282
2.370;1.565275;-2.167385
2.380;1.545655;-2.211363
2.390;1.534858;-2.259042
2.400;1.531424;-2.310113
2.410;1.534261;-2.364185
2.420;1.542707;-2.420724
2.430;1.556381;-2.478958
2.440;1.574857;-2.537870
2.450;1.597288;-2.596330
2.460;1.622146;-2.653338
2.470;1.647242;-2.708216
2.480;1.670056;-2.760648
2.490;1.688275;-2.810559
2.500;1.700304;-2.857913
2.510;1.705541;-2.902557
2.520;1.704326;-2.944160
2.530;1.697614;-2.982263
2.540;1.686554;-3.016427
2.550;1.672172;-3.046424
2.560;1.655298;-3.072401
2.570;1.636713;-3.094901
2.580;1.617399;-3.114673
2.590;1.598737;-3.132291
2.600;1.582525;-3.147744
2.610;1.570782;-3.160209
2.620;1.565413;-3.168179
2.630;1.567824;-3.169971
2.640;1.578663;-3.164433
2.650;1.597795;-3.151554
2.660;1.624527;-3.132657
2.670;1.657998;-3.110114
2.680;1.697527;-3.086680
2.690;1.742756;-3.064745
2.700;1.793533;-3.045767
2.710;1.849620;-3.030077
2.720;1.910409;-3.017049
2.730;1.974762;-3.005536
2.740;2.041020;-2.994368
2.750;2.107152;-2.982742
2.760;2.170994;-2.970402
2.770;2.230527;-2.957598
2.780;2.284134;-2.944900
2.790;2.330774;-2.932985
2.800;2.370002;-2.922515
2.810;2.401803;-2.914074
2.820;2.426314;-2.908119
2.830;2.443577;-2.904854
2.840;2.453458;-2.904084
2.850;2.455788;-2.905189
2.860;2.450632;-2.907297
2.870;2.438526;-2.909638
2.880;2.420540;-2.911890
2.890;2.398112;-2.914351
2.900;2.372754;-2.917831
2.910;2.345771;-2.923341
2.920;2.318112;-2.931712
2.930;2.290359;-2.943322
2.940;2.262814;-2.958025
2.950;2.235596;-2.975253
2.960;2.208739;-2.994234
2.970;2.182287;-3.014204
2.980;2.156384;-3.034571
2.990;2.131331;-3.054980
3.000;2.107585;-3.075257
3.010;2.085660;-3.095236
3.020;2.065962;-3.114547
3.030;2.048579;-3.132482
3.040;2.033123;-3.148054
3.050;2.018710;-3.160270
3.060;2.004129;-3.168507
3.070;1.988187;-3.172806
3.080;1.970081;-3.173938
3.090;1.949632;-3.173174
3.100;1.927248;-3.171856
3.110;1.903623;-3.170912
3.120;1.879275;-3.170527
3.130;1.854134;-3.170079
3.140;1.827363;-3.168366
3.150;1.797517;-3.164042
3.160;1.762995;-3.156107
3.170;1.722640;-3.144292
3.180;1.676241;-3.129199
3.190;1.624755;-3.112143
3.200;1.570166;-3.094722
3.210;1.515025;-3.078254
3.220;1.461827;-3.063282
3.230;1.412418;-3.049377
3.240;1.367619;-3.035313
3.250;1.327178;-3.019555
3.260;1.290011;-3.000893
3.270;1.254628;-2.978962
3.280;1.219607;-2.954486
3.290;1.183996;-2.929139
3.300;1.147570;-2.905076
3.310;1.110887;-2.884321
3.320;1.075125;-2.868217
3.330;1.041704;-2.857130
3.340;1.011794;-2.850443
3.350;0.985885;-2.846808
3.360;0.963580;-2.844535
3.370;0.943720;-2.842013
3.380;0.924750;-2.838041
3.390;0.905151;-2.832004
3.400;0.883751;-2.823864
3.410;0.859815;-2.813984
3.420;0.832946;-2.802872
3.430;0.802912;-2.790934
3.440;0.769547;-2.778331
3.450;0.732768;-2.764984
3.460;0.692676;-2.750730
3.470;0.649666;-2.735581
3.480;0.604473;-2.719960
3.490;0.558135;-2.704782
3.500;0.511903;-2.691327
3.510;0.467142;-2.680949
3.520;0.425215;-2.674750
3.530;0.387286;-2.673370
3.540;0.354059;-2.676916
3.550;0.325512;-2.685030
3.560;0.300810;-2.697042
3.570;0.278525;-2.712153
3.580;0.257163;-2.729620
3.590;0.235805;-2.748896
3.600;0.214570;-2.769702
3.610;0.194666;-2.792019
3.620;0.177989;-2.815981
3.630;0.166449;-2.841686
3.640;0.161313;-2.868973
3.650;0.162773;-2.897248
3.660;0.169845;-2.925467
3.670;0.180594;-2.952301
3.680;0.192595;-2.976470
3.690;0.203505;-2.997092
3.700;0.211602;-3.013913
3.710;0.216174;-3.027300
3.720;0.217672;-3.038045
3.730;0.217641;-3.047102
3.740;0.218417;-3.055374
3.750;0.222673;-3.063621
3.760;0.232869;-3.072476
3.770;0.250742;-3.082535
3.780;0.276999;-3.094415
3.790;0.311336;-3.108708
3.800;0.352778;-3.125790
3.810;0.400222;-3.145577
3.820;0.452955;-3.167381
3.830;0.510972;-3.189967
3.840;0.575007;-3.211807
3.850;0.646285;-3.231418
3.860;0.726119;-3.247607
3.870;0.815468;-3.259559
3.880;0.914620;-3.266737
3.890;1.023047;-3.268703
3.900;1.139427;-3.265015
3.910;1.261774;-3.255312
3.920;1.387626;-3.239608
3.930;1.514273;-3.218623
3.940;1.639050;-3.193919
3.950;1.759644;-3.167694
3.960;1.874317;-3.142312
3.970;1.981972;-3.119786
3.980;2.082023;-3.101430
3.990;2.174142;-3.087795
4.000;2.257943;-3.078830
4.010;2.332723;-3.074149
4.020;2.397309;-3.073283
4.030;2.450094;-3.075799
4.040;2.489296;-3.081296
4.050;2.513403;-3.089295
4.060;2.521706;-3.099156
4.070;2.514719;-3.110088
4.080;2.494297;-3.121252
4.090;2.463321;-3.131921
4.100;2.425057;-3.141607
4.110;2.382380;-3.150139
4.120;2.337179;-3.157665
4.130;2.290112;-3.164582
4.140;2.240793;-3.171413
4.150;2.188298;-3.178663
4.160;2.131815;-3.186661
4.170;2.071231;-3.195409
4.180;2.007500;-3.204497
4.190;1.942715;-3.213127
4.200;1.879883;-3.220268
4.210;1.822426;-3.224913
4.220;1.773553;-3.226335
4.230;1.735633;-3.224274
4.240;1.709742;-3.218985
4.250;1.695475;-3.211172
4.260;1.691057;-3.201821
4.270;1.693732;-3.191961
4.280;1.700332;-3.182371
4.290;1.707919;-3.173345
4.300;1.714326;-3.164602
4.310;1.718497;-3.155406
4.320;1.720585;-3.144859
4.330;1.721791;-3.132215
4.340;1.723975;-3.117083
4.350;1.729117;-3.099460
4.360;1.738751;-3.079628
4.370;1.753537;-3.058027
4.380;1.773097;-3.035161
4.390;1.796124;-3.011575
4.400;1.820734;-2.987858
4.410;1.844913;-2.964629
4.420;1.866943;-2.942472
4.430;1.885674;-2.921839
4.440;1.900621;-2.902928
4.450;1.911867;-2.885600
4.460;1.919866;-2.869364
4.470;1.925234;-2.853442
4.480;1.928584;-2.836954
4.490;1.930443;-2.819206
4.500;1.931233;-2.800007
4.510;1.931294;-2.779844
4.520;1.930900;-2.759808
4.530;1.930243;-2.741278
4.540;1.929385;-2.725518
4.550;1.928202;-2.713336
4.560;1.926365;-2.704968
4.570;1.923381;-2.700168
4.580;1.918689;-2.698424
4.590;1.911817;-2.699157
4.600;1.902552;-2.701822
4.610;1.891077;-2.705927
4.620;1.878007;-2.711019
4.630;1.864307;-2.716685
4.640;1.851149;-2.722570
4.650;1.839759;-2.728408
4.660;1.831291;-2.734060
4.670;1.826694;-2.739534
4.680;1.826572;-2.744958
4.690;1.831050;-2.750492
4.700;1.839721;-2.756213
4.710;1.851714;-2.762043
4.720;1.865907;-2.767749
4.730;1.881201;-2.773003
4.740;1.896775;-2.777449
4.750;1.912246;-2.780777
4.760;1.927712;-2.782774
4.770;1.943678;-2.783334
4.780;1.960878;-2.782402
4.790;1.980001;-2.779887
4.800;2.001410;-2.775593
4.810;2.024945;-2.769224
4.820;2.049882;-2.760455
4.830;2.075074;-2.749047
4.840;2.099212;-2.734950
4.850;2.121087;-2.718360
4.860;2.139770;-2.699731
4.870;2.154688;-2.679729
4.880;2.165637;-2.659144
4.890;2.172762;-2.638743
4.900;2.176481;-2.619126
4.910;2.177356;-2.600642
4.920;2.175931;-2.583409
4.930;2.172612;-2.567386
4.940;2.167625;-2.552440
4.950;2.161080;-2.538360
4.960;2.153074;-2.524835
4.970;2.143818;-2.511450
4.980;2.133683;-2.497757
4.990;2.123136;-2.483428
5.000;2.112558;-2.468417
5.010;2.102072;-2.453027
5.020;2.091496;-2.437822
5.030;2.080511;-2.423394
5.040;2.068938;-2.410098
5.050;2.056964;-2.397863
5.060;2.045227;-2.386170
5.070;2.034721;-2.374179
5.080;2.026604;-2.360955
5.090;2.021961;-2.345695
5.100;2.021608;-2.327891
5.110;2.025961;-2.307421
5.120;2.034966;-2.284584
5.130;2.048078;-2.260065
5.140;2.064269;-2.234834
5.150;2.082125;-2.209986
5.160;2.100016;-2.186551
5.170;2.116336;-2.165348
5.180;2.129745;-2.146898
5.190;2.139337;-2.131430
5.200;2.144673;-2.118948
5.210;2.145717;-2.109335
5.220;2.142708;-2.102419
5.230;2.136044;-2.097975
5.240;2.126162;-2.095657
5.250;2.113420;-2.094938
5.260;2.097999;-2.095123
5.270;2.079857;-2.095473
5.280;2.058760;-2.095367
5.290;2.034386;-2.094391
5.300;2.006476;-2.092327
5.310;1.974980;-2.089057
5.320;1.940126;-2.084449
5.330;1.902381;-2.078264
5.340;1.862307;-2.070098
5.350;1.820389;-2.059409
5.360;1.776938;-2.045617
5.370;1.732103;-2.028272
5.380;1.685950;-2.007236
5.390;1.638607;-1.982805
5.400;1.590441;-1.955704
5.410;1.542247;-1.926927
5.420;1.495385;-1.897425
5.430;1.451770;-1.867766
5.440;1.413633;-1.837919
5.450;1.383101;-1.807289
5.460;1.361762;-1.775003
5.470;1.350381;-1.740283
5.480;1.348873;-1.702751
5.490;1.356482;-1.662561
5.500;1.372055;-1.620344
5.510;1.394309;-1.577028
5.520;1.422058;-1.533595
5.530;1.454424;-1.490834
5.540;1.491045;-1.449173
5.550;1.532218;-1.408631
5.560;1.578861;-1.368920
5.570;1.632214;-1.329619
5.580;1.693316;-1.290363
5.590;1.762439;-1.250995
5.600;1.838713;-1.211686
5.610;1.920087;-1.173006
5.620;2.003680;-1.135926
5.630;2.086382;-1.101657
5.640;2.165496;-1.071348
5.650;2.239200;-1.045756
5.660;2.306705;-1.025074
5.670;2.368096;-1.008987
5.680;2.423946;-0.996899
5.690;2.474840;-0.988215
5.700;2.520951;-0.982527
5.710;2.561813;-0.979658
5.720;2.596350;-0.979573
5.730;2.623166;-0.982258
5.740;2.641007;-0.987642
5.750;2.649202;-0.995612
5.760;2.647961;-1.006085
5.770;2.638423;-1.019107
5.780;2.622486;-1.034861
5.790;2.602420;-1.053542
5.800;2.580425;-1.075123
5.810;2.558235;-1.099170
5.820;2.536906;-1.124875
5.830;2.516818;-1.151385
5.840;2.497837;-1.178292
5.850;2.479573;-1.206023
5.860;2.461640;-1.235883
5.870;2.443842;-1.269681
5.880;2.426235;-1.309083
5.890;2.409063;-1.354987
5.900;2.392591;-1.407199
5.910;2.376920;-1.464557
5.920;2.361846;-1.525428
5.930;2.346797;-1.588356
5.940;2.330869;-1.652564
5.950;2.312891;-1.718101
5.960;2.291538;-1.785612
5.970;2.265448;-1.855876
5.980;2.233379;-1.929341
5.990;2.194404;-2.005859
6.000;2.148141;-2.084659
6.010;2.094942;-2.164572
6.020;2.035949;-2.244396
6.030;1.972896;-2.323269
6.040;1.907671;-2.400895
6.050;1.841782;-2.477473
6.060;1.775934;-2.553347
6.070;1.709904;-2.628549
6.080;1.642784;-2.702492
6.090;1.573490;-2.773994
6.100;1.501347;-2.841604
6.110;1.426541;-2.904009
6.120;1.350274;-2.960310
6.130;1.274620;-3.010042
6.140;1.202125;-3.053045
6.150;1.135290;-3.089300
6.160;1.076050;-3.118856
6.170;1.025362;-3.141884
6.180;0.982979;-3.158823
6.190;0.947475;-3.170489
6.200;0.916531;-3.178054
6.210;0.887466;-3.182854
6.220;0.857881;-3.186110
6.230;0.826232;-3.188708
6.240;0.792171;-3.191132
6.250;0.756540;-3.193529
6.260;0.721034;-3.195823
6.270;0.687638;-3.197801
6.280;0.658034;-3.199140
6.290;0.633163;-3.199394
6.300;0.613093;-3.197960
6.310;0.597231;-3.194099
6.320;0.584750;-3.187058
6.330;0.575038;-3.176354
6.340;0.567973;-3.162112
6.350;0.563929;-3.145270
6.360;0.563546;-3.127487
6.370;0.567408;-3.110713
6.380;0.575782;-3.096558
6.390;0.588584;-3.085732
6.400;0.605568;-3.077773
6.410;0.626587;-3.071185
6.420;0.651717;-3.063910
6.430;0.681104;-3.053980
6.440;0.714609;-3.040102
6.450;0.751446;-3.021994
6.460;0.790068;-3.000391
6.470;0.828351;-2.976735
6.480;0.864024;-2.952692
6.490;0.895137;-2.929653
6.500;0.920398;-2.908397
6.510;0.939298;-2.889036
6.520;0.952013;-2.871262
6.530;0.959159;-2.854751
6.540;0.961506;-2.839505
6.550;0.959753;-2.825944
6.560;0.954404;-2.814715
6.570;0.945753;-2.806335
6.580;0.933937;-2.800907
6.590;0.919068;-2.798018
6.600;0.901417;-2.796883
6.610;0.881617;-2.796601
6.620;0.860814;-2.796372
6.630;0.840637;-2.795597
6.640;0.822998;-2.793839
6.650;0.809752;-2.790711
6.660;0.802367;-2.785759
6.670;0.801681;-2.778409
6.680;0.807811;-2.768035
6.690;0.820221;-2.754138
6.700;0.837917;-2.736550
6.710;0.859742;-2.715570
6.720;0.884684;-2.691977
6.730;0.912142;-2.666923
6.740;0.942064;-2.641737
6.750;0.974911;-2.617695
6.760;1.011443;-2.595768
6.770;1.052394;-2.576416
6.780;1.098138;-2.559484
6.790;1.148423;-2.544269
6.800;1.202215;-2.529771
6.810;1.257694;-2.515071
6.820;1.312446;-2.499689
6.830;1.363838;-2.483784
6.840;1.409503;-2.468115
6.850;1.447814;-2.453809
6.860;1.478169;-2.442008
6.870;1.500981;-2.433527
6.880;1.517326;-2.428595
6.890;1.528377;-2.426762
6.900;1.534898;-2.426994
6.910;1.537035;-2.427927
6.920;1.534519;-2.428217
6.930;1.527152;-2.426916
6.940;1.515311;-2.423751
6.950;1.500189;-2.419192
6.960;1.483622;-2.414248
6.970;1.467584;-2.410035
6.980;1.453614;-2.407317
6.990;1.442459;-2.406246
7.000;1.434083;-2.406415
7.010;1.427953;-2.407191
7.020;1.423419;-2.408116
7.030;1.419970;-2.409138
7.040;1.417302;-2.410575
7.050;1.415242;-2.412872
7.060;1.413665;-2.416310
7.070;1.412467;-2.420823
7.080;1.411604;-2.425953
7.090;1.411113;-2.430958
7.100;1.411088;-2.435030
7.110;1.411610;-2.437579
7.120;1.412667;-2.438464
7.130;1.414120;-2.438065
7.140;1.415713;-2.437139
7.150;1.417117;-2.436523
7.160;1.417967;-2.436824
7.170;1.417883;-2.438219
7.180;1.416485;-2.440451
7.190;1.413434;-2.443003
7.200;1.408520;-2.445381
7.210;1.401755;-2.447365
7.220;1.393408;-2.449108
7.230;1.383922;-2.451031
7.240;1.373709;-2.453601
7.250;1.362951;-2.457079
7.260;1.351517;-2.461363
7.270;1.339077;-2.465996
7.280;1.325342;-2.470360
7.290;1.310283;-2.473949
7.300;1.294192;-2.476602
7.310;1.277578;-2.478554
7.320;1.260973;-2.480309
7.330;1.244750;-2.482382
7.340;1.229017;-2.485049
7.350;1.213599;-2.488215
7.360;1.198107;-2.491448
7.370;1.182092;-2.494133
7.380;1.165278;-2.495663
7.390;1.147835;-2.495567
7.400;1.130558;-2.493567
7.410;1.114807;-2.489586
7.420;1.102156;-2.483747
7.430;1.093890;-2.476361
7.440;1.090590;-2.467873
7.450;1.092019;-2.458783
7.460;1.097333;-2.449564
7.470;1.105449;-2.440627
7.480;1.115379;-2.432322
7.490;1.126399;-2.424932
7.500;1.138077;-2.418631
7.510;1.150233;-2.413351
7.520;1.162917;-2.408635
7.530;1.176427;-2.403557
7.540;1.191345;-2.396786
7.550;1.208497;-2.386848
7.560;1.228810;-2.372502
7.570;1.253051;-2.353137
7.580;1.281560;-2.329006
7.590;1.314065;-2.301214
7.600;1.349641;-2.271418
7.610;1.386841;-2.241400
7.620;1.423963;-2.212661
7.630;1.459403;-2.186177
7.640;1.491978;-2.162324
7.650;1.521160;-2.140918
7.660;1.547122;-2.121307
7.670;1.570624;-2.102522
7.680;1.592754;-2.083471
7.690;1.614590;-2.063193
7.700;1.636856;-2.041145
7.710;1.659649;-2.017437
7.720;1.682308;-1.992908
7.730;1.703508;-1.968973
7.740;1.721550;-1.947258
7.750;1.734785;-1.929171
7.760;1.742023;-1.915562
7.770;1.742787;-1.906604
7.780;1.737366;-1.901906
7.790;1.726684;-1.900746
7.800;1.712088;-1.902297
7.810;1.695119;-1.905743
7.820;1.677303;-1.910305
7.830;1.659966;-1.915238
7.840;1.644096;-1.919877
7.850;1.630255;-1.923715
7.860;1.618558;-1.926522
7.870;1.608748;-1.928427
7.880;1.600337;-1.929927
7.890;1.592805;-1.931752
7.900;1.585761;-1.934665
7.910;1.579081;-1.939258
7.920;1.572979;-1.945852
7.930;1.568028;-1.954480
7.940;1.565085;-1.964922
7.950;1.565095;-1.976735
7.960;1.568814;-1.989283
7.970;1.576535;-2.001804
7.980;1.587923;-2.013542
