Time[s];COPx[cm];COPy[cm]
0.010;-1.345221;-0.982085
0.020;-1.307071;-0.970336
0.030;-1.270411;-0.955798
0.040;-1.236089;-0.936348
0.050;-1.203830;-0.910708
0.060;-1.172340;-0.878623
0.070;-1.139847;-0.840834
0.080;-1.104895;-0.798853
0.090;-1.067039;-0.754577
0.100;-1.027163;-0.709793
0.110;-0.987266;-0.665701
0.120;-0.949868;-0.622645
0.130;-0.917338;-0.580189
0.140;-0.891434;-0.537557
0.150;-0.873163;-0.494294
0.160;-0.862881;-0.450863
0.170;-0.860478;-0.408854
0.180;-0.865504;-0.370615
0.190;-0.877199;-0.338416
0.200;-0.894482;-0.313481
0.210;-0.915992;-0.295315
0.220;-0.940300;-0.281649
0.230;-0.966301;-0.269089
0.240;-0.993677;-0.254242
0.250;-1.023206;-0.234865
0.260;-1.056688;-0.210543
0.270;-1.096386;-0.182655
0.280;-1.144124;-0.153678
0.290;-1.200388;-0.126150
0.300;-1.263815;-0.101664
0.310;-1.331402;-0.080212
0.320;-1.399434;-0.060084
0.330;-1.464861;-0.038432
0.340;-1.526614;-0.012335
0.350;-1.586322;0.019998
0.360;-1.648142;0.058437
0.370;-1.717705;0.100875
0.380;-1.800424;0.143912
0.390;-1.899559;0.183915
0.400;-2.014489;0.217998
0.410;-2.139776;0.244544
0.420;-2.265646;0.263165
0.430;-2.380177;0.274178
0.440;-2.472738;0.277902
0.450;-2.537333;0.274120
0.460;-2.574249;0.261997
0.470;-2.589244;0.240515
0.480;-2.590793;0.209211
0.490;-2.586780;0.168842
0.500;-2.581959;0.121629
0.510;-2.576903;0.070933
0.520;-2.568530;0.020437
0.530;-2.551814;-0.026881
0.540;-2.522033;-0.069583
0.550;-2.476753;-0.108090
0.560;-2.416838;-0.144339
0.570;-2.346143;-0.180905
0.580;-2.270084;-0.219940
0.590;-2.193704;-0.262355
0.600;-2.120018;-0.307579
0.610;-2.049244;-0.353953
0.620;-1.979217;-0.399560
0.630;-1.906787;-0.443078
0.640;-1.829595;-0.484238
0.650;-1.747404;-0.523692
0.660;-1.662353;-0.562398
0.670;-1.578095;-0.600899
0.680;-1.498314;-0.638868
0.690;-1.425366;-0.675099
0.700;-1.359641;-0.707902
0.710;-1.299799;-0.735680
0.720;-1.243656;-0.757393
0.730;-1.189281;-0.772691
0.740;-1.135838;-0.781699
0.750;-1.083914;-0.784572
0.760;-1.035311;-0.781117
0.770;-0.992496;-0.770675
0.780;-0.957924;-0.752367
0.790;-0.933432;-0.725582
0.800;-0.919766;-0.690466
0.810;-0.916289;-0.648152
0.820;-0.920955;-0.600632
0.830;-0.930631;-0.550295
0.840;-0.941849;-0.499353
0.850;-0.951839;-0.449380
0.860;-0.959511;-0.401171
0.870;-0.965976;-0.354965
0.880;-0.974318;-0.310820
0.890;-0.988660;-0.268896
0.900;-1.012839;-0.229441
0.910;-1.049117;-0.192516
0.920;-1.097302;-0.157624
0.930;-1.154527;-0.123469
0.940;-1.215745;-0.087971
0.950;-1.274852;-0.048616
0.960;-1.326152;-0.003098
0.970;-1.365729;0.049865
0.980;-1.392245;0.109817
0.990;-1.406891;0.174265
1.000;-1.412495;0.239010
1.010;-1.412165;0.299119
1.020;-1.408012;0.350265
1.030;-1.400433;0.389996
1.040;-1.388192;0.418468
1.050;-1.369216;0.438345
1.060;-1.341697;0.453876
1.070;-1.305058;0.469505
1.080;-1.260378;0.488535
1.090;-1.210192;0.512319
1.100;-1.157814;0.540196
1.110;-1.106512;0.570083
1.120;-1.058813;0.599443
1.130;-1.016119;0.626220
1.140;-0.978662;0.649434
1.150;-0.945767;0.669274
1.160;-0.916351;0.686760
1.170;-0.889526;0.703178
1.180;-0.865112;0.719563
1.190;-0.843900;0.736387
1.200;-0.827538;0.753505
1.210;-0.818070;0.770295
1.220;-0.817272;0.785894
1.230;-0.825995;0.799451
1.240;-0.843735;0.810384
1.250;-0.868565;0.818586
1.260;-0.897502;0.824567
1.270;-0.927232;0.829451
1.280;-0.954995;0.834809
1.290;-0.979368;0.842338
1.300;-1.000661;0.853477
1.310;-1.020760;0.869084
1.320;-1.042428;0.889288
1.330;-1.068280;0.913538
1.340;-1.099782;0.940783
1.350;-1.136658;0.969660
1.360;-1.176895;0.998638
1.370;-1.217389;1.026140
1.380;-1.254994;1.050711
1.390;-1.287580;1.071226
1.400;-1.314689;1.087065
1.410;-1.337565;1.098154
1.420;-1.358573;1.104859
1.430;-1.380318;1.107769
1.440;-1.404824;1.107521
1.450;-1.433084;1.104754
1.460;-1.465124;1.100222
1.470;-1.500503;1.094988
1.480;-1.539014;1.090522
1.490;-1.581288;1.088567
1.500;-1.628981;1.090673
1.510;-1.684354;1.097551
1.520;-1.749267;1.108503
1.530;-1.823952;1.121293
1.540;-1.906082;1.132677
1.550;-1.990656;1.139526
1.560;-2.070919;1.140109
1.570;-2.140046;1.134884
1.580;-2.192974;1.126358
1.590;-2.227672;1.118080
1.600;-2.245478;1.113306
1.610;-2.250469;1.113966
1.620;-2.248204;1.120315
1.630;-2.244243;1.131240
1.640;-2.242879;1.144918
1.650;-2.246392;1.159468
1.660;-2.254937;1.173420
1.670;-2.267002;1.185928
1.680;-2.280221;1.196824
1.690;-2.292262;1.206556
1.700;-2.301596;1.216061
1.710;-2.307974;1.226544
1.720;-2.312577;1.239158
1.730;-2.317801;1.254597
1.740;-2.326780;1.272741
1.750;-2.342778;1.292488
1.760;-2.368626;1.311879
1.770;-2.406320;1.328489
1.780;-2.456844;1.339917
1.790;-2.520229;1.344153
1.800;-2.595830;1.339753
1.810;-2.682710;1.325863
1.820;-2.779912;1.302281
1.830;-2.886404;1.269647
1.840;-3.000575;1.229704
1.850;-3.119470;1.185476
1.860;-3.238202;1.141114
1.870;-3.350067;1.101298
1.880;-3.447626;1.070237
1.890;-3.524485;1.050543
1.900;-3.577080;1.042450
1.910;-3.605648;1.043785
1.920;-3.613976;1.050757
1.930;-3.608115;1.059209
1.940;-3.594649;1.065815
1.950;-3.579145;1.068792
1.960;-3.565194;1.068012
1.970;-3.554146;1.064595
1.980;-3.545463;1.060265
1.990;-3.537466;1.056657
2.000;-3.528223;1.054785
2.010;-3.516279;1.054757
2.020;-3.501041;1.055818
2.030;-3.482791;1.056657
2.040;-3.462460;1.055866
2.050;-3.441339;1.052380
2.060;-3.420828;1.045750
2.070;-3.402227;1.036215
2.080;-3.386535;1.024595
2.090;-3.374247;1.012088
2.100;-3.365209;1.000018
2.110;-3.358650;0.989587
2.120;-3.353430;0.981635
2.130;-3.348481;0.976468
2.140;-3.343226;0.973820
2.150;-3.337790;0.972970
2.160;-3.332876;0.972960
2.170;-3.329344;0.972816
2.180;-3.327693;0.971680
2.190;-3.327672;0.968848
2.200;-3.328213;0.963760
2.210;-3.327763;0.956014
2.220;-3.324885;0.945381
2.230;-3.318902;0.931781
2.240;-3.310252;0.915130
2.250;-3.300380;0.895144
2.260;-3.291173;0.871229
2.270;-3.284181;0.842604
2.280;-3.279962;0.808656
2.290;-3.277794;0.769366
2.300;-3.275866;0.725564
2.310;-3.271845;0.678831
2.320;-3.263608;0.631007
2.330;-3.249884;0.583487
2.340;-3.230602;0.536634
2.350;-3.206892;0.489611
2.360;-3.180764;0.440760
2.370;-3.154582;0.388352
2.380;-3.130444;0.331411
2.390;-3.109617;0.270293
2.400;-3.092162;0.206833
2.410;-3.076880;0.144037
2.420;-3.061631;0.085408
2.430;-3.043964;0.034105
2.440;-3.021844;-0.007834
2.450;-2.994238;-0.039942
2.460;-2.961346;-0.063331
2.470;-2.924448;-0.080261
2.480;-2.885485;-0.093453
2.490;-2.846577;-0.105354
2.500;-2.809652;-0.117588
2.510;-2.776256;-0.130741
2.520;-2.747490;-0.144510
2.530;-2.723982;-0.158090
2.540;-2.705755;-0.170596
2.550;-2.691979;-0.181273
2.560;-2.680680;-0.189434
2.570;-2.668615;-0.194166
2.580;-2.651527;-0.194047
2.590;-2.624905;-0.187127
2.600;-2.585158;-0.171312
2.610;-2.530852;-0.145067
2.620;-2.463502;-0.108118
2.630;-2.387492;-0.061790
2.640;-2.309045;-0.008779
2.650;-2.234583;0.047489
2.660;-2.169083;0.103615
2.670;-2.114980;0.156797
2.680;-2.071971;0.205165
2.690;-2.037680;0.247923
2.700;-2.008876;0.285416
2.710;-1.982731;0.319084
2.720;-1.957662;0.351272
2.730;-1.933529;0.384792
2.740;-1.911237;0.422252
2.750;-1.892015;0.465258
2.760;-1.876676;0.513722
2.770;-1.865115;0.565517
2.780;-1.856175;0.616644
2.790;-1.847931;0.661999
2.800;-1.838298;0.696573
2.810;-1.825737;0.716764
2.820;-1.809773;0.721295
2.830;-1.791123;0.711370
2.840;-1.771418;0.690029
2.850;-1.752685;0.661009
2.860;-1.736819;0.627606
2.870;-1.725202;0.591987
2.880;-1.718536;0.555145
2.890;-1.716868;0.517409
2.900;-1.719739;0.479128
2.910;-1.726391;0.441144
2.920;-1.735962;0.404789
2.930;-1.747653;0.371472
2.940;-1.760842;0.342108
2.950;-1.775144;0.316697
2.960;-1.790428;0.294233
2.970;-1.806807;0.273026
2.980;-1.824595;0.251327
2.990;-1.844235;0.228045
3.000;-1.866188;0.203250
3.010;-1.890813;0.178229
3.020;-1.918271;0.155055
3.030;-1.948499;0.135836
3.040;-1.981246;0.121920
3.050;-2.016154;0.113324
3.060;-2.052885;0.108561
3.070;-2.091263;0.104922
3.080;-2.131420;0.099136
3.090;-2.173864;0.088198
3.100;-2.219340;0.070126
3.110;-2.268433;0.044384
3.120;-2.320973;0.011875
3.130;-2.375481;-0.025496
3.140;-2.429002;-0.065517
3.150;-2.477554;-0.106398
3.160;-2.517153;-0.147285
3.170;-2.545030;-0.188354
3.180;-2.560480;-0.230389
3.190;-2.564958;-0.274030
3.200;-2.561421;-0.319045
3.210;-2.553319;-0.364076
3.220;-2.543721;-0.407062
3.230;-2.534902;-0.446184
3.240;-2.528436;-0.480886
3.250;-2.525595;-0.512458
3.260;-2.527736;-0.543896
3.270;-2.536478;-0.579046
3.280;-2.553586;-0.621381
3.290;-2.580626;-0.672827
3.300;-2.618523;-0.733063
3.310;-2.667190;-0.799481
3.320;-2.725387;-0.867814
3.330;-2.790896;-0.933188
3.340;-2.860995;-0.991262
3.350;-2.933077;-1.039113
3.360;-3.005198;-1.075641
3.370;-3.076365;-1.101453
3.380;-3.146454;-1.118344
3.390;-3.215839;-1.128574
3.400;-3.284854;-1.134175
3.410;-3.353286;-1.136449
3.420;-3.420082;-1.135764
3.430;-3.483428;-1.131640
3.440;-3.541216;-1.123023
3.450;-3.591739;-1.108622
3.460;-3.634313;-1.087195
3.470;-3.669517;-1.057793
3.480;-3.698917;-1.019976
3.490;-3.724372;-0.974029
3.500;-3.747267;-0.921105
3.510;-3.768025;-0.863169
3.520;-3.786151;-0.802653
3.530;-3.800781;-0.741828
3.540;-3.811477;-0.682088
3.550;-3.818881;-0.623408
3.560;-3.824923;-0.564243
3.570;-3.832470;-0.502022
3.580;-3.844553;-0.434157
3.590;-3.863444;-0.359263
3.600;-3.889859;-0.278135
3.610;-3.922518;-0.193995
3.620;-3.958201;-0.111790
3.630;-3.992401;-0.036701
3.640;-4.020454;0.027588
3.650;-4.038854;0.080192
3.660;-4.046273;0.123391
3.670;-4.043870;0.161924
3.680;-4.034763;0.201479
3.690;-4.022891;0.246847
3.700;-4.011712;0.300340
3.710;-4.003157;0.360975
3.720;-3.997178;0.424767
3.730;-3.991982;0.486086
3.740;-3.984868;0.539651
3.750;-3.973371;0.582398
3.760;-3.956323;0.614489
3.770;-3.934414;0.639101
3.780;-3.910056;0.661123
3.790;-3.886603;0.685376
3.800;-3.867233;0.715013
3.810;-3.853879;0.750618
3.820;-3.846491;0.790219
3.830;-3.842791;0.830130
3.840;-3.838541;0.866259
3.850;-3.828346;0.895447
3.860;-3.806857;0.916402
3.870;-3.770165;0.930003
3.880;-3.716952;0.938910
3.890;-3.648997;0.946710
3.900;-3.570800;0.956921
3.910;-3.488428;0.972212
3.920;-3.407966;0.993996
3.930;-3.334072;1.022366
3.940;-3.269052;1.056271
3.950;-3.212642;1.093826
3.960;-3.162452;1.132741
3.970;-3.114898;1.170825
3.980;-3.066330;1.206517
3.990;-3.014090;1.239322
4.000;-2.957235;1.270032
4.010;-2.896720;1.300595
4.020;-2.835001;1.333603
4.030;-2.775180;1.371482
4.040;-2.719969;1.415600
4.050;-2.670812;1.465618
4.060;-2.627447;1.519333
4.070;-2.588039;1.573146
4.080;-2.549839;1.623017
4.090;-2.510131;1.665596
4.100;-2.467184;1.699125
4.110;-2.420885;1.723761
4.120;-2.372857;1.741184
4.130;-2.326090;1.753673
4.140;-2.284223;1.763080
4.150;-2.250747;1.770097
4.160;-2.228295;1.774092
4.170;-2.218156;1.773463
4.180;-2.220028;1.766325
4.190;-2.232017;1.751292
4.200;-2.250900;1.728136
4.210;-2.272662;1.698147
4.220;-2.293280;1.664080
4.230;-2.309575;1.629627
4.240;-2.319892;1.598550
4.250;-2.324365;1.573736
4.260;-2.324683;1.556486
4.270;-2.323459;1.546275
4.280;-2.323417;1.541006
4.290;-2.326658;1.537659
4.300;-2.334185;1.533113
4.310;-2.345772;1.524897
4.320;-2.360182;1.511668
4.330;-2.375629;1.493323
4.340;-2.390365;1.470753
4.350;-2.403171;1.445375
4.360;-2.413620;1.418622
4.370;-2.422039;1.391564
4.380;-2.429234;1.364771
4.390;-2.436146;1.338371
4.400;-2.443574;1.312215
4.410;-2.452044;1.286003
4.420;-2.461841;1.259348
4.430;-2.473129;1.231840
4.440;-2.486109;1.203215
4.450;-2.501150;1.173614
4.460;-2.518832;1.143773
4.470;-2.539859;1.114940
4.480;-2.564833;1.088464
4.490;-2.593948;1.065217
4.500;-2.626751;1.045137
4.510;-2.662081;1.027139
4.520;-2.698254;1.009490
4.530;-2.733460;0.990509
4.540;-2.766246;0.969301
4.550;-2.795975;0.946192
4.560;-2.823071;0.922663
4.570;-2.848939;0.900822
4.580;-2.875490;0.882614
4.590;-2.904406;0.869059
4.600;-2.936350;0.859794
4.610;-2.970426;0.853078
4.620;-3.004119;0.846276
4.630;-3.033818;0.836673
4.640;-3.055821;0.822346
4.650;-3.067510;0.802810
4.660;-3.068250;0.779227
4.670;-3.059637;0.754096
4.680;-3.044998;0.730540
4.690;-3.028340;0.711421
4.700;-3.013187;0.698612
4.710;-3.001690;0.692660
4.720;-2.994276;0.692875
4.730;-2.989820;0.697743
4.740;-2.986211;0.705425
4.750;-2.981111;0.714191
4.760;-2.972712;0.722673
4.770;-2.960328;0.729949
4.780;-2.944670;0.735524
4.790;-2.927721;0.739267
4.800;-2.912232;0.741372
4.810;-2.900997;0.742321
4.820;-2.896115;0.742814
4.830;-2.898466;0.743624
4.840;-2.907538;0.745362
4.850;-2.921641;0.748232
4.860;-2.938427;0.751895
4.870;-2.955579;0.755539
4.880;-2.971467;0.758161
4.890;-2.985562;0.759005
4.900;-2.998485;0.757968
4.910;-3.011620;0.755799
4.920;-3.026443;0.753951
4.930;-3.043758;0.754100
4.940;-3.063126;0.757533
4.950;-3.082686;0.764663
4.960;-3.099481;0.774897
4.970;-3.110240;0.786900
4.980;-3.112352;0.799135
4.990;-3.104719;0.810448
5.000;-3.088146;0.820420
5.010;-3.065138;0.829363
5.020;-3.039207;0.837997
5.030;-3.013940;0.847041
5.040;-2.992156;0.856891
5.050;-2.975412;0.867503
5.060;-2.963950;0.878472
5.070;-2.957051;0.889247
5.080;-2.953589;0.899392
5.090;-2.952583;0.908776
5.100;-2.953511;0.917609
5.110;-2.956351;0.926343
5.120;-2.961398;0.935532
5.130;-2.969009;0.945753
5.140;-2.979416;0.957638
5.150;-2.992673;0.971949
5.160;-3.008687;0.989633
5.170;-3.027270;1.011751
5.180;-3.048142;1.039267
5.190;-3.070925;1.072761
5.200;-3.095167;1.112170
5.210;-3.120455;1.156667
5.220;-3.146555;1.204729
5.230;-3.173514;1.254356
5.240;-3.201629;1.303386
5.250;-3.231248;1.349796
5.260;-3.262452;1.391942
5.270;-3.294749;1.428676
5.280;-3.326915;1.459337
5.290;-3.357120;1.483670
5.300;-3.383321;1.501699
5.310;-3.403821;1.513607
5.320;-3.417786;1.519643
5.330;-3.425516;1.520065
5.340;-3.428382;1.515128
5.350;-3.428458;1.505120
5.360;-3.427991;1.490399
5.370;-3.428864;1.471450
5.380;-3.432227;1.448945
5.390;-3.438354;1.423812
5.400;-3.446746;1.397265
5.410;-3.456449;1.370707
5.420;-3.466470;1.345486
5.430;-3.476206;1.322553
5.440;-3.485706;1.302168
5.450;-3.495682;1.283796
5.460;-3.507217;1.266268
5.470;-3.521290;1.248148
5.480;-3.538268;1.228208
5.490;-3.557588;1.205823
5.500;-3.577740;1.181185
5.510;-3.596580;1.155237
5.520;-3.611891;1.129391
5.530;-3.621994;1.105115
5.540;-3.626205;1.083531
5.550;-3.624978;1.065146
5.560;-3.619703;1.049807
5.570;-3.612261;1.036899
5.580;-3.604525;1.025654
5.590;-3.597937;1.015422
5.600;-3.593239;1.005737
5.610;-3.590340;0.996151
5.620;-3.588328;0.985966
5.630;-3.585632;0.974071
5.640;-3.580352;0.959036
5.650;-3.570694;0.939465
5.660;-3.555436;0.914437
5.670;-3.534265;0.883796
5.680;-3.507849;0.848173
5.690;-3.477574;0.808730
5.700;-3.445029;0.766822
5.710;-3.411426;0.723754
5.720;-3.377211;0.680715
5.730;-3.341998;0.638863
5.740;-3.304839;0.599423
5.750;-3.264683;0.563644
5.760;-3.220849;0.532584
5.770;-3.173314;0.506781
5.780;-3.122783;0.485994
5.790;-3.070560;0.469141
5.800;-3.018348;0.454506
5.810;-2.968033;0.440162
5.820;-2.921484;0.424472
5.830;-2.880329;0.406519
5.840;-2.845666;0.386292
5.850;-2.817762;0.364549
5.860;-2.795838;0.342389
5.870;-2.778128;0.320730
5.880;-2.762283;0.299906
5.890;-2.746065;0.279571
5.900;-2.728053;0.258939
5.910;-2.708086;0.237242
5.920;-2.687244;0.214183
5.930;-2.667425;0.190164
5.940;-2.650702;0.166220
5.950;-2.638727;0.143678
5.960;-2.632350;0.123682
5.970;-2.631528;0.106761
5.980;-2.635454;0.092585
5.990;-2.642813;0.080023
6.000;-2.652065;0.067467
6.010;-2.661706;0.053346
6.020;-2.670544;0.036666
6.030;-2.677947;0.017440
6.040;-2.683998;-0.003138
6.050;-2.689443;-0.022888
6.060;-2.695398;-0.039235
6.070;-2.702943;-0.050108
6.080;-2.712739;-0.054892
6.090;-2.724822;-0.055128
6.100;-2.738580;-0.054684
6.110;-2.752920;-0.059194
6.120;-2.766555;-0.074789
6.130;-2.778355;-0.106362
6.140;-2.787635;-0.155880
6.150;-2.794299;-0.221345
6.160;-2.798779;-0.296870
6.170;-2.801805;-0.373930
6.180;-2.804132;-0.443451
6.190;-2.806338;-0.498064
6.200;-2.808755;-0.533873
6.210;-2.811501;-0.551214
6.220;-2.814540;-0.554234
6.230;-2.817719;-0.549502
6.240;-2.820811;-0.544140
6.250;-2.823596;-0.544056
6.260;-2.825948;-0.552733
6.270;-2.827903;-0.570768
6.280;-2.829618;-0.596149
6.290;-2.831264;-0.625078
6.300;-2.832889;-0.653081
6.310;-2.834319;-0.676101
6.320;-2.835129;-0.691298
6.330;-2.834690;-0.697391
6.340;-2.832290;-0.694517
6.350;-2.827293;-0.683737
6.360;-2.819321;-0.666374
6.370;-2.808405;-0.643434
6.380;-2.795068;-0.615301
6.390;-2.780296;-0.581830
6.400;-2.765396;-0.542770
6.410;-2.751783;-0.498312
6.420;-2.740760;-0.449506
6.430;-2.733349;-0.398329
6.440;-2.730187;-0.347385
6.450;-2.731499;-0.299355
6.460;-2.737155;-0.256450
6.470;-2.746767;-0.220043
6.480;-2.759805;-0.190590
6.490;-2.775653;-0.167776
6.500;-2.793625;-0.150760
6.510;-2.812957;-0.138392
6.520;-2.832855;-0.129351
6.530;-2.852606;-0.122224
6.540;-2.871760;-0.115606
6.550;-2.890282;-0.108272
6.560;-2.908596;-0.099418
6.570;-2.927440;-0.088890
6.580;-2.947576;-0.077258
6.590;-2.969449;-0.065670
6.600;-2.992928;-0.055508
6.610;-3.017241;-0.047997
6.620;-3.041150;-0.043897
6.630;-3.063332;-0.043362
6.640;-3.082792;-0.045955
6.650;-3.099165;-0.050761
6.660;-3.112767;-0.056554
6.670;-3.124420;-0.061964
6.680;-3.135180;-0.065664
6.690;-3.146074;-0.066577
6.700;-3.157951;-0.064096
6.710;-3.171398;-0.058283
6.720;-3.186687;-0.049975
6.730;-3.203702;-0.040688
6.740;-3.221861;-0.032292
6.750;-3.240146;-0.026466
6.760;-3.257285;-0.024114
6.770;-3.272103;-0.024904
6.780;-3.283919;-0.027155
6.790;-3.292830;-0.028148
6.800;-3.299731;-0.024800
6.810;-3.306027;-0.014492
6.820;-3.313119;0.004186
6.830;-3.321862;0.030989
6.840;-3.332217;0.063987
6.850;-3.343253;0.100004
6.860;-3.353481;0.135458
6.870;-3.361356;0.167366
6.880;-3.365715;0.194202
6.890;-3.366011;0.216214
6.900;-3.362338;0.235081
6.910;-3.355316;0.252980
6.920;-3.345924;0.271456
6.930;-3.335314;0.290526
6.940;-3.324634;0.308375
6.950;-3.314855;0.321768
6.960;-3.306613;0.327065
6.970;-3.300078;0.321469
6.980;-3.294900;0.304032
6.990;-3.290266;0.275921
7.000;-3.285117;0.239769
7.010;-3.278513;0.198295
7.020;-3.270040;0.152840
7.030;-3.260087;0.102510
7.040;-3.249809;0.044410
7.050;-3.240701;-0.025059
7.060;-3.233929;-0.108370
7.070;-3.229723;-0.205261
7.080;-3.227149;-0.312028
7.090;-3.224400;-0.422066
7.100;-3.219504;-0.527501
7.110;-3.211101;-0.621324
7.120;-3.198961;-0.699252
7.130;-3.184023;-0.760666
7.140;-3.168021;-0.808316
7.150;-3.152910;-0.846986
7.160;-3.140316;-0.881616
7.170;-3.131194;-0.915537
7.180;-3.125710;-0.949408
7.190;-3.123325;-0.981140
7.200;-3.123012;-1.006816
7.210;-3.123558;-1.022236
7.220;-3.123882;-1.024563
7.230;-3.123293;-1.013531
7.240;-3.121603;-0.991843
7.250;-3.119078;-0.964633
7.260;-3.116264;-0.938153
7.270;-3.113790;-0.918094
7.280;-3.112199;-0.908070
7.290;-3.111787;-0.908755
7.300;-3.112418;-0.917915
7.310;-3.113348;-0.931297
7.320;-3.113181;-0.943982
7.330;-3.110066;-0.951752
7.340;-3.102138;-0.952069
7.350;-3.088082;-0.944477
7.360;-3.067611;-0.930453
7.370;-3.041640;-0.912813
7.380;-3.012067;-0.894872
7.390;-2.981245;-0.879564
7.400;-2.951310;-0.868765
7.410;-2.923648;-0.863023
7.420;-2.898658;-0.861760
7.430;-2.875926;-0.863867
7.440;-2.854726;-0.868434
7.450;-2.834609;-0.875344
7.460;-2.815821;-0.885443
7.470;-2.799351;-0.900175
7.480;-2.786619;-0.920778
7.490;-2.778961;-0.947352
7.500;-2.777167;-0.978259
7.510;-2.781235;-1.010220
7.520;-2.790408;-1.039161
7.530;-2.803449;-1.061538
7.540;-2.819061;-1.075569
7.550;-2.836283;-1.081875
7.560;-2.854745;-1.083271
7.570;-2.874696;-1.083788
7.580;-2.896810;-1.087316
7.590;-2.921827;-1.096362
7.600;-2.950136;-1.111347
7.610;-2.981434;-1.130629
7.620;-3.014605;-1.151162
7.630;-3.047874;-1.169545
7.640;-3.079209;-1.183075
7.650;-3.106781;-1.190499
7.660;-3.129313;-1.192262
7.670;-3.146209;-1.190253
7.680;-3.157482;-1.187199
7.690;-3.163568;-1.185934
7.700;-3.165096;-1.188729
7.710;-3.162656;-1.196834
7.720;-3.156612;-1.210293
7.730;-3.147035;-1.228027
7.740;-3.133787;-1.248102
7.750;-3.116741;-1.268036
7.760;-3.096010;-1.285077
7.770;-3.072070;-1.296419
7.780;-3.045712;-1.299479
7.790;-3.017875;-1.292285
7.800;-2.989461;-1.273945
7.810;-2.961224;-1.245039
7.820;-2.933747;-1.207697
7.830;-2.907462;-1.165235
7.840;-2.882639;-1.121343
7.850;-2.859315;-1.079052
7.860;-2.837228;-1.039832
