Time[s];COPx[cm];COPy[cm]
0.010;1.408110;-2.771264
0.020;1.409728;-2.804456
0.030;1.411913;-2.835272
0.040;1.415019;-2.861697
0.050;1.419161;-2.882380
0.060;1.424294;-2.896808
0.070;1.430381;-2.905314
0.080;1.437559;-2.908948
0.090;1.446187;-2.909248
0.100;1.456770;-2.907938
0.110;1.469787;-2.906609
0.120;1.485468;-2.906412
0.130;1.503615;-2.907877
0.140;1.523518;-2.910881
0.150;1.544047;-2.914804
0.160;1.563853;-2.918791
0.170;1.581600;-2.922048
0.180;1.596154;-2.924055
0.190;1.606664;-2.924673
0.200;1.612583;-2.924116
0.210;1.613636;-2.922837
0.220;1.609791;-2.921328
0.230;1.601223;-2.919881
0.240;1.588253;-2.918402
0.250;1.571282;-2.916375
0.260;1.550737;-2.913032
0.270;1.527054;-2.907673
0.280;1.500700;-2.899992
0.290;1.472203;-2.890262
0.300;1.442162;-2.879322
0.310;1.411241;-2.868357
0.320;1.380144;-2.858545
0.330;1.349611;-2.850713
0.340;1.320426;-2.845131
0.350;1.293428;-2.841520
0.360;1.269469;-2.839266
0.370;1.249347;-2.837722
0.380;1.233688;-2.836493
0.390;1.222834;-2.835580
0.400;1.216766;-2.835344
0.410;1.215094;-2.836355
0.420;1.217157;-2.839215
0.430;1.222218;-2.844454
0.440;1.229678;-2.852485
0.450;1.239196;-2.863608
0.460;1.250659;-2.877994
0.470;1.264011;-2.895664
0.480;1.279060;-2.916501
0.490;1.295383;-2.940341
0.500;1.312355;-2.967102
0.510;1.329294;-2.996890
0.520;1.345614;-3.030008
0.530;1.360940;-3.066831
0.540;1.375119;-3.107587
0.550;1.388154;-3.152106
0.560;1.400084;-3.199652
0.570;1.410891;-3.248918
0.580;1.420462;-3.298164
0.590;1.428565;-3.345432
0.600;1.434828;-3.388754
0.610;1.438717;-3.426306
0.620;1.439543;-3.456522
0.630;1.436544;-3.478199
0.640;1.429033;-3.490622
0.650;1.416561;-3.493684
0.660;1.399032;-3.487907
0.670;1.376702;-3.474324
0.680;1.350089;-3.454263
0.690;1.319862;-3.429134
0.700;1.286753;-3.400293
0.710;1.251527;-3.368982
0.720;1.214978;-3.336284
0.730;1.177897;-3.303039
0.740;1.141019;-3.269716
0.750;1.104922;-3.236296
0.760;1.069925;-3.202229
0.770;1.035983;-3.166504
0.780;1.002606;-3.127814
0.790;0.968809;-3.084745
0.800;0.933191;-3.035942
0.810;0.894157;-2.980252
0.820;0.850314;-2.916878
0.830;0.800904;-2.845574
0.840;0.746162;-2.766835
0.850;0.687445;-2.682024
0.860;0.627072;-2.593365
0.870;0.567886;-2.503741
0.880;0.512666;-2.416333
0.890;0.463563;-2.334152
0.900;0.421750;-2.259606
0.910;0.387367;-2.194215
0.920;0.359733;-2.138573
0.930;0.337692;-2.092537
0.940;0.319934;-2.055533
0.950;0.305246;-2.026852
0.960;0.292629;-2.005817
0.970;0.281348;-1.991790
0.980;0.270914;-1.984087
0.990;0.261048;-1.981858
1.000;0.251667;-1.984010
1.010;0.242871;-1.989193
1.020;0.234877;-1.995912
1.030;0.227874;-2.002729
1.040;0.221798;-2.008541
1.050;0.216145;-2.012805
1.060;0.209923;-2.015634
1.070;0.201796;-2.017728
1.080;0.190373;-2.020186
1.090;0.174492;-2.024220
1.100;0.153410;-2.030856
1.110;0.126808;-2.040674
1.120;0.094665;-2.053659
1.130;0.057062;-2.069189
1.140;0.014028;-2.086188
1.150;-0.034530;-2.103363
1.160;-0.088783;-2.119464
1.170;-0.148855;-2.133469
1.180;-0.214630;-2.144641
1.190;-0.285585;-2.152463
1.200;-0.360678;-2.156540
1.210;-0.438361;-2.156550
1.220;-0.516677;-2.152303
1.230;-0.593402;-2.143862
1.240;-0.666200;-2.131639
1.250;-0.732767;-2.116387
1.260;-0.790969;-2.099083
1.270;-0.839011;-2.080740
1.280;-0.875625;-2.062211
1.290;-0.900266;-2.044074
1.300;-0.913271;-2.026618
1.310;-0.915880;-2.009932
1.320;-0.910070;-1.994031
1.330;-0.898199;-1.978965
1.340;-0.882576;-1.964852
1.350;-0.865070;-1.951827
1.360;-0.846885;-1.939924
1.370;-0.828559;-1.928970
1.380;-0.810135;-1.918544
1.390;-0.791421;-1.908035
1.400;-0.772212;-1.896821
1.410;-0.752388;-1.884510
1.420;-0.731889;-1.871155
1.430;-0.710574;-1.857328
1.440;-0.688037;-1.844020
1.450;-0.663470;-1.832399
1.460;-0.635654;-1.823520
1.470;-0.603148;-1.818076
1.480;-0.564665;-1.816242
1.490;-0.519563;-1.817648
1.500;-0.468262;-1.821485
1.510;-0.412450;-1.826719
1.520;-0.354917;-1.832363
1.530;-0.299012;-1.837707
1.540;-0.247866;-1.842447
1.550;-0.203621;-1.846674
1.560;-0.166963;-1.850757
1.570;-0.137126;-1.855168
1.580;-0.112350;-1.860302
1.590;-0.090581;-1.866352
1.600;-0.070156;-1.873261
1.610;-0.050224;-1.880751
1.620;-0.030783;-1.888400
1.630;-0.012384;-1.895708
1.640;0.004364;-1.902169
1.650;0.019247;-1.907329
1.660;0.032718;-1.910857
1.670;0.045906;-1.912620
1.680;0.060407;-1.912757
1.690;0.077945;-1.911700
1.700;0.100044;-1.910128
1.710;0.127793;-1.908839
1.720;0.161738;-1.908549
1.730;0.201883;-1.909665
1.740;0.247763;-1.912104
1.750;0.298574;-1.915242
1.760;0.353300;-1.918021
1.770;0.410804;-1.919167
1.780;0.469863;-1.917428
1.790;0.529170;-1.911727
1.800;0.587371;-1.901207
1.810;0.643134;-1.885214
1.820;0.695230;-1.863283
1.830;0.742578;-1.835172
1.840;0.784247;-1.800916
1.850;0.819473;-1.760861
1.860;0.847726;-1.715684
1.870;0.868834;-1.666405
1.880;0.883098;-1.614372
1.890;0.891331;-1.561202
1.900;0.894775;-1.508639
1.910;0.894930;-1.458376
1.920;0.893371;-1.411851
1.930;0.891619;-1.370092
1.940;0.891112;-1.333641
1.950;0.893278;-1.302602
1.960;0.899620;-1.276795
1.970;0.911775;-1.255950
1.980;0.931469;-1.239874
1.990;0.960379;-1.228526
2.000;0.999924;-1.221996
2.010;1.051026;-1.220395
2.020;1.113881;-1.223691
2.030;1.187787;-1.231559
2.040;1.271102;-1.243274
2.050;1.361385;-1.257696
2.060;1.455698;-1.273359
2.070;1.551007;-1.288670
2.080;1.644543;-1.302159
2.090;1.734077;-1.312701
2.100;1.818045;-1.319618
2.110;1.895567;-1.322650
2.120;1.966368;-1.321866
2.130;2.030676;-1.317564
2.140;2.089081;-1.310184
2.150;2.142402;-1.300222
2.160;2.191531;-1.288128
2.170;2.237299;-1.274211
2.180;2.280374;-1.258584
2.190;2.321208;-1.241192
2.200;2.360055;-1.221933
2.210;2.397048;-1.200828
2.220;2.432309;-1.178147
2.230;2.466041;-1.154418
2.240;2.498534;-1.130323
2.250;2.530106;-1.106530
2.260;2.560989;-1.083537
2.270;2.591233;-1.061532
2.280;2.620680;-1.040331
2.290;2.649037;-1.019397
2.300;2.676023;-0.997987
2.310;2.701524;-0.975354
2.320;2.725703;-0.950946
2.330;2.748980;-0.924520
2.340;2.771903;-0.896137
2.350;2.794946;-0.866078
2.360;2.818345;-0.834716
2.370;2.842020;-0.802394
2.380;2.865623;-0.769366
2.390;2.888673;-0.735803
2.400;2.910687;-0.701866
2.410;2.931268;-0.667789
2.420;2.950115;-0.633901
2.430;2.967013;-0.600564
2.440;2.981813;-0.568054
2.450;2.994445;-0.536473
2.460;3.004932;-0.505755
2.470;3.013388;-0.475760
2.480;3.019966;-0.446413
2.490;3.024764;-0.417827
2.500;3.027680;-0.390327
2.510;3.028274;-0.364375
2.520;3.025680;-0.340404
2.530;3.018665;-0.318631
2.540;3.005828;-0.298928
2.550;2.985909;-0.280794
2.560;2.958123;-0.263454
2.570;2.922435;-0.246068
2.580;2.879727;-0.227978
2.590;2.831782;-0.208913
2.600;2.781077;-0.189057
2.610;2.730408;-0.168970
2.620;2.682457;-0.149381
2.630;2.639441;-0.130957
2.640;2.602919;-0.114113
2.650;2.573782;-0.098918
2.660;2.552383;-0.085121
2.670;2.538725;-0.072268
2.680;2.532636;-0.059849
2.690;2.533885;-0.047430
2.700;2.542222;-0.034743
2.710;2.557346;-0.021697
2.720;2.578818;-0.008309
2.730;2.605959;0.005407
2.740;2.637796;0.019546
2.750;2.673082;0.034330
2.760;2.710417;0.050048
2.770;2.748414;0.066984
2.780;2.785855;0.085377
2.790;2.821755;0.105422
2.800;2.855349;0.127278
2.810;2.886002;0.151042
2.820;2.913142;0.176694
2.830;2.936248;0.204067
2.840;2.954920;0.232867
2.850;2.968984;0.262752
2.860;2.978538;0.293428
2.870;2.983889;0.324734
2.880;2.985396;0.356655
2.890;2.983282;0.389243
2.900;2.977503;0.422475
2.910;2.967734;0.456122
2.920;2.953482;0.489704
2.930;2.934307;0.522555
2.940;2.910072;0.553966
2.950;2.881098;0.583366
2.960;2.848134;0.610498
2.970;2.812159;0.635532
2.980;2.774090;0.659078
2.990;2.734562;0.682083
3.000;2.693854;0.705644
3.010;2.651968;0.730774
3.020;2.608763;0.758184
3.030;2.564073;0.788135
3.040;2.517764;0.820369
3.050;2.469753;0.854105
3.060;2.419988;0.888093
3.070;2.368431;0.920738
3.080;2.315041;0.950344
3.090;2.259801;0.975401
3.100;2.202796;0.994814
3.110;2.144348;1.007958
3.120;2.085161;1.014571
3.130;2.026393;1.014602
3.140;1.969568;1.008174
3.150;1.916317;0.995699
3.160;1.868025;0.978026
3.170;1.825519;0.956472
3.180;1.788956;0.932622
3.190;1.757988;0.907962
3.200;1.732115;0.883507
3.210;1.711047;0.859599
3.220;1.694861;0.835971
3.230;1.683885;0.812070
3.240;1.678348;0.787492
3.250;1.677995;0.762335
3.260;1.681824;0.737313
3.270;1.688072;0.713569
3.280;1.694452;0.692295
3.290;1.698509;0.674350
3.300;1.697965;0.660040
3.310;1.690977;0.649116
3.320;1.676258;0.640918
3.330;1.653116;0.634574
3.340;1.621401;0.629189
3.350;1.581380;0.623984
3.360;1.533568;0.618370
3.370;1.478554;0.611934
3.380;1.416871;0.604361
3.390;1.348976;0.595332
3.400;1.275307;0.584452
3.410;1.196351;0.571276
3.420;1.112640;0.555480
3.430;1.024661;0.537131
3.440;0.932753;0.516904
3.450;0.837124;0.496110
3.460;0.738017;0.476462
3.470;0.636013;0.459674
3.480;0.532325;0.447019
3.490;0.428966;0.439004
3.500;0.328665;0.435227
3.510;0.234510;0.434469
3.520;0.149388;0.435012
3.530;0.075385;0.435120
3.540;0.013362;0.433535
3.550;-0.037157;0.429800
3.560;-0.077759;0.424270
3.570;-0.110676;0.417826
3.580;-0.138221;0.411447
3.590;-0.162318;0.405834
3.600;-0.184243;0.401222
3.610;-0.204607;0.397377
3.620;-0.223505;0.393754
3.630;-0.240745;0.389685
3.640;-0.256066;0.384555
3.650;-0.269336;0.377927
3.660;-0.280671;0.369597
3.670;-0.290479;0.359612
3.680;-0.299388;0.348220
3.690;-0.308090;0.335782
3.700;-0.317156;0.322629
3.710;-0.326917;0.308919
3.720;-0.337438;0.294529
3.730;-0.348607;0.279043
3.740;-0.360214;0.261849
3.750;-0.371964;0.242327
3.760;-0.383399;0.220032
3.770;-0.393815;0.194798
3.780;-0.402247;0.166708
3.790;-0.407574;0.135991
3.800;-0.408650;0.102896
3.810;-0.404386;0.067620
3.820;-0.393713;0.030285
3.830;-0.375449;-0.009044
3.840;-0.348130;-0.050364
3.850;-0.309907;-0.093761
3.860;-0.258616;-0.139432
3.870;-0.192076;-0.187665
3.880;-0.108568;-0.238722
3.890;-0.007356;-0.292652
3.900;0.110957;-0.349103
3.910;0.244365;-0.407226
3.920;0.389749;-0.465726
3.930;0.543422;-0.523017
3.940;0.701761;-0.577441
3.950;0.861735;-0.627491
3.960;1.021153;-0.672007
3.970;1.178595;-0.710324
3.980;1.333115;-0.742333
3.990;1.483903;-0.768415
4.000;1.630077;-0.789256
4.010;1.770683;-0.805607
4.020;1.904824;-0.818102
4.030;2.031822;-0.827181
4.040;2.151289;-0.833110
4.050;2.263081;-0.836069
4.060;2.367185;-0.836239
4.070;2.463600;-0.833865
4.080;2.552296;-0.829265
4.090;2.633272;-0.822780
4.100;2.706668;-0.814721
4.110;2.772876;-0.805332
4.120;2.832563;-0.794796
4.130;2.886602;-0.783243
4.140;2.935939;-0.770739
4.150;2.981443;-0.757300
4.160;3.023821;-0.742973
4.170;3.063604;-0.727979
4.180;3.101190;-0.712858
4.190;3.136908;-0.698485
4.200;3.171046;-0.685946
4.210;3.203852;-0.676341
4.220;3.235534;-0.670611
4.230;3.266277;-0.669430
4.240;3.296273;-0.673144
4.250;3.325703;-0.681770
4.260;3.354656;-0.695051
4.270;3.383026;-0.712582
4.280;3.410467;-0.733949
4.290;3.436425;-0.758857
4.300;3.460220;-0.787193
4.310;3.481120;-0.819050
4.320;3.498349;-0.854690
4.330;3.511035;-0.894452
4.340;3.518147;-0.938556
4.350;3.518492;-0.986847
4.360;3.510842;-1.038572
4.370;3.494214;-1.092315
4.380;3.468228;-1.146185
4.390;3.433409;-1.198194
4.400;3.391282;-1.246689
4.410;3.344171;-1.290613
4.420;3.294698;-1.329494
4.430;3.245177;-1.363190
4.440;3.197132;-1.391570
4.450;3.151124;-1.414316
4.460;3.106918;-1.430928
4.470;3.063868;-1.440940
4.480;3.021376;-1.444264
4.490;2.979265;-1.441551
4.500;2.938025;-1.434379
4.510;2.898867;-1.425153
4.520;2.863593;-1.416677
4.530;2.834263;-1.411540
4.540;2.812763;-1.411519
4.550;2.800372;-1.417238
4.560;2.797475;-1.428189
4.570;2.803484;-1.443064
4.580;2.816992;-1.460228
4.590;2.836103;-1.478191
4.600;2.858844;-1.495955
4.610;2.883548;-1.513159
4.620;2.909078;-1.530007
4.630;2.934840;-1.547011
4.640;2.960594;-1.564700
4.650;2.986168;-1.583410
4.660;3.011188;-1.603234
4.670;3.034957;-1.624093
4.680;3.056528;-1.645836
4.690;3.074974;-1.668312
4.700;3.089719;-1.691447
4.710;3.100786;-1.715297
4.720;3.108847;-1.740099
4.730;3.115040;-1.766229
4.740;3.120635;-1.794078
4.750;3.126692;-1.823857
4.760;3.133830;-1.855445
4.770;3.142194;-1.888366
4.780;3.151581;-1.921928
4.790;3.161676;-1.955471
4.800;3.172291;-1.988613
4.810;3.183539;-2.021389
4.820;3.195857;-2.054222
4.830;3.209884;-2.087749
4.840;3.226243;-2.122589
4.850;3.245350;-2.159145
4.860;3.267323;-2.197523
4.870;3.292033;-2.237567
4.880;3.319249;-2.278973
4.890;3.348774;-2.321425
4.900;3.380499;-2.364722
4.910;3.414343;-2.408837
4.920;3.450139;-2.453887
4.930;3.487551;-2.500004
4.940;3.526065;-2.547174
4.950;3.565062;-2.595117
4.960;3.603920;-2.643277
4.970;3.642108;-2.690917
4.980;3.679246;-2.737283
4.990;3.715129;-2.781789
5.000;3.749677;-2.824164
5.010;3.782870;-2.864504
5.020;3.814669;-2.903230
5.030;3.844980;-2.940933
5.040;3.873639;-2.978198
5.050;3.900397;-3.015443
5.060;3.924873;-3.052824
5.070;3.946500;-3.090200
5.080;3.964497;-3.127159
5.090;3.977939;-3.163110
5.100;3.985928;-3.197390
5.110;3.987837;-3.229376
5.120;3.983557;-3.258552
5.130;3.973627;-3.284562
5.140;3.959170;-3.307245
5.150;3.941633;-3.326655
5.160;3.922458;-3.343037
5.170;3.902805;-3.356742
5.180;3.883444;-3.368146
5.190;3.864824;-3.377599
5.200;3.847228;-3.385419
5.210;3.830928;-3.391871
5.220;3.816265;-3.397136
5.230;3.803624;-3.401307
5.240;3.793355;-3.404438
5.250;3.785686;-3.406640
5.260;3.780676;-3.408141
5.270;3.778224;-3.409271
5.280;3.778095;-3.410364
5.290;3.779953;-3.411619
5.300;3.783371;-3.413010
5.310;3.787837;-3.414265
5.320;3.792777;-3.414924
5.330;3.797592;-3.414398
5.340;3.801682;-3.412009
5.350;3.804456;-3.406976
5.360;3.805308;-3.398393
5.370;3.803592;-3.385216
5.380;3.798621;-3.366321
5.390;3.789717;-3.340640
5.400;3.776315;-3.307356
5.410;3.758091;-3.266093
5.420;3.735042;-3.216999
5.430;3.707447;-3.160676
5.440;3.675685;-3.097929
5.450;3.639969;-3.029422
5.460;3.600097;-2.955338
5.470;3.555316;-2.875216
5.480;3.504388;-2.788031
5.490;3.445859;-2.692539
5.500;3.378507;-2.587818
5.510;3.301880;-2.473835
5.520;3.216765;-2.351919
5.530;3.125411;-2.224929
5.540;3.031328;-2.097023
5.550;2.938631;-1.973016
5.560;2.851102;-1.857482
5.570;2.771315;-1.753889
5.580;2.700217;-1.664079
5.590;2.637319;-1.588244
5.600;2.581391;-1.525354
5.610;2.531280;-1.473781
5.620;2.486488;-1.431859
5.630;2.447347;-1.398238
5.640;2.414802;-1.372020
5.650;2.389974;-1.352728
5.660;2.373688;-1.340172
5.670;2.366116;-1.334255
5.680;2.366635;-1.334769
5.690;2.373909;-1.341255
5.700;2.386146;-1.352959
5.710;2.401403;-1.368911
5.720;2.417866;-1.388088
5.730;2.434029;-1.409603
5.740;2.448768;-1.432838
5.750;2.461314;-1.457485
5.760;2.471201;-1.483505
5.770;2.478245;-1.511064
5.780;2.482562;-1.540458
5.790;2.484593;-1.572028
5.800;2.485045;-1.606030
5.810;2.484720;-1.642461
5.820;2.484293;-1.680898
5.830;2.484140;-1.720443
5.840;2.484316;-1.759818
5.850;2.484684;-1.797595
5.860;2.485098;-1.832467
5.870;2.485565;-1.863451
5.880;2.486331;-1.889965
5.890;2.487862;-1.911804
5.900;2.490740;-1.929064
5.910;2.495489;-1.942064
5.920;2.502425;-1.951268
5.930;2.511574;-1.957196
5.940;2.522700;-1.960341
5.950;2.535421;-1.961145
5.960;2.549372;-1.960042
5.970;2.564351;-1.957528
5.980;2.580382;-1.954178
5.990;2.597687;-1.950562
6.000;2.616596;-1.947084
6.010;2.637419;-1.943846
6.020;2.660356;-1.940609
6.030;2.685436;-1.936912
6.040;2.712485;-1.932315
6.050;2.741113;-1.926653
6.060;2.770715;-1.920191
6.070;2.800512;-1.913615
6.080;2.829637;-1.907865
6.090;2.857236;-1.903878
6.100;2.882538;-1.902370
6.110;2.904892;-1.903731
6.120;2.923768;-1.908051
6.130;2.938742;-1.915243
6.140;2.949511;-1.925192
6.150;2.955938;-1.937900
6.160;2.958101;-1.953568
6.170;2.956278;-1.972627
6.180;2.950871;-1.995674
6.190;2.942276;-2.023350
6.200;2.930790;-2.056133
6.210;2.916614;-2.094140
6.220;2.899972;-2.136986
6.230;2.881277;-2.183775
6.240;2.861238;-2.233214
6.250;2.840813;-2.283834
6.260;2.821009;-2.334276
6.270;2.802627;-2.383533
6.280;2.786091;-2.431075
6.290;2.771457;-2.476804
6.300;2.758579;-2.520927
6.310;2.747294;-2.563814
6.320;2.737551;-2.605919
6.330;2.729428;-2.647730
6.340;2.723080;-2.689698
6.350;2.718669;-2.732116
6.360;2.716284;-2.775002
6.370;2.715888;-2.818034
6.380;2.717299;-2.860607
6.390;2.720244;-2.901976
6.400;2.724494;-2.941428
6.410;2.730014;-2.978443
6.420;2.737030;-3.012779
6.430;2.745920;-3.044474
6.440;2.756938;-3.073698
6.450;2.769875;-3.100510
6.460;2.783797;-3.124599
6.470;2.796991;-3.145137
6.480;2.807161;-3.160849
6.490;2.811847;-3.170292
6.500;2.808945;-3.172288
6.510;2.797169;-3.166342
6.520;2.776326;-3.152903
6.530;2.747341;-3.133339
6.540;2.712042;-3.109662
6.550;2.672783;-3.084103
6.560;2.632017;-3.058697
6.570;2.591909;-3.034982
6.580;2.554092;-3.013870
6.590;2.519595;-2.995705
6.600;2.488936;-2.980454
6.610;2.462309;-2.967947
6.620;2.439792;-2.958067
6.630;2.421489;-2.950819
6.640;2.407605;-2.946307
6.650;2.398423;-2.944683
6.660;2.394256;-2.946141
6.670;2.395384;-2.950921
6.680;2.402013;-2.959328
6.690;2.414263;-2.971710
6.700;2.432181;-2.988381
6.710;2.455749;-3.009498
6.720;2.484847;-3.034946
6.730;2.519178;-3.064272
6.740;2.558172;-3.096723
6.750;2.600945;-3.131366
6.760;2.646345;-3.167221
6.770;2.693049;-3.203358
6.780;2.739694;-3.238897
6.790;2.784976;-3.272967
6.800;2.827755;-3.304688
6.810;2.867177;-3.333225
6.820;2.902762;-3.357907
6.830;2.934436;-3.378335
6.840;2.962457;-3.394412
6.850;2.987244;-3.406309
6.860;3.009183;-3.414380
6.870;3.028471;-3.419053
6.880;3.045062;-3.420742
6.890;3.058738;-3.419772
6.900;3.069259;-3.416359
6.910;3.076517;-3.410662
6.920;3.080593;-3.402866
6.930;3.081718;-3.393255
6.940;3.080198;-3.382170
6.950;3.076372;-3.369883
6.960;3.070605;-3.356448
6.970;3.063267;-3.341666
6.980;3.054661;-3.325181
6.990;3.044941;-3.306662
7.000;3.034076;-3.285948
7.010;3.021914;-3.263085
7.020;3.008289;-3.238236
7.030;2.993122;-3.211564
7.040;2.976425;-3.183136
7.050;2.958219;-3.152892
7.060;2.938379;-3.120639
7.070;2.916507;-3.086027
7.080;2.891876;-3.048515
7.090;2.863501;-3.007361
7.100;2.830324;-2.961711
7.110;2.791455;-2.910814
7.120;2.746419;-2.854279
7.130;2.695333;-2.792281
7.140;2.638932;-2.725570
7.150;2.578431;-2.655291
7.160;2.515222;-2.582697
7.170;2.450531;-2.508905
7.180;2.385173;-2.434786
7.190;2.319478;-2.360984
7.200;2.253407;-2.287991
7.210;2.186763;-2.216195
7.220;2.119421;-2.145887
7.230;2.051499;-2.077286
7.240;1.983466;-2.010600
7.250;1.916181;-1.946132
7.260;1.850874;-1.884334
7.270;1.789025;-1.825778
7.280;1.732148;-1.771035
7.290;1.681499;-1.720500
7.300;1.637812;-1.674256
7.310;1.601161;-1.632043
7.320;1.571030;-1.593361
7.330;1.546572;-1.557678
7.340;1.526953;-1.524649
7.350;1.511629;-1.494270
7.360;1.500470;-1.466898
7.370;1.493701;-1.443145
7.380;1.491725;-1.423689
7.390;1.494892;-1.409074
7.400;1.503311;-1.399571
7.410;1.516724;-1.395099
7.420;1.534492;-1.395210
7.430;1.555677;-1.399108
7.440;1.579201;-1.405731
7.450;1.604019;-1.413887
7.460;1.629205;-1.422434
7.470;1.653957;-1.430456
7.480;1.677526;-1.437394
7.490;1.699167;-1.443111
7.500;1.718181;-1.447882
7.510;1.734073;-1.452347
7.520;1.746779;-1.457408
7.530;1.756842;-1.464092
7.540;1.765426;-1.473377
7.550;1.774104;-1.486025
7.560;1.784477;-1.502448
7.570;1.797736;-1.522627
7.580;1.814341;-1.546099
7.590;1.833925;-1.572001
7.600;1.855443;-1.599200
7.610;1.877506;-1.626481
7.620;1.898775;-1.652799
7.630;1.918287;-1.677487
7.640;1.935618;-1.700366
7.650;1.950872;-1.721693
7.660;1.964507;-1.741976
7.670;1.977097;-1.761762
7.680;1.989075;-1.781459
7.690;2.000549;-1.801229
7.700;2.011219;-1.820926
7.710;2.020424;-1.840073
7.720;2.027297;-1.857882
7.730;2.030997;-1.873356
7.740;2.030967;-1.885474
7.750;2.027136;-1.893465
7.760;2.020005;-1.897045
7.770;2.010563;-1.896550
7.780;2.000082;-1.892872
7.790;1.989869;-1.887222
7.800;1.981069;-1.880802
7.810;1.974559;-1.874500
7.820;1.970909;-1.868767
7.830;1.970415;-1.863686
7.840;1.973193;-1.859215
7.850;1.979305;-1.855470
7.860;1.988885;-1.852907
7.870;2.002224;-1.852332
7.880;2.019787;-1.854738
7.890;2.042193;-1.861026
7.900;2.070141;-1.871716
7.910;2.104321;-1.886756
7.920;2.145281;-1.905502
7.930;2.193277;-1.926864
7.940;2.248102;-1.949535
7.950;2.308949;-1.972220
7.960;2.374372;-1.993802
7.970;2.442404;-2.013455
7.980;2.510837;-2.030697
7.990;2.577598;-2.045394
8.000;2.641097;-2.057684
