Time[s];COPx[cm];COPy[cm]
0.010;-2.847288;-2.900943
0.020;-2.835812;-2.905614
0.030;-2.827548;-2.910467
0.040;-2.825401;-2.915349
0.050;-2.831516;-2.919876
0.060;-2.847034;-2.923592
0.070;-2.872030;-2.926312
0.080;-2.905644;-2.928461
0.090;-2.946280;-2.931207
0.100;-2.991824;-2.936254
0.110;-3.039800;-2.945333
0.120;-3.087523;-2.959598
0.130;-3.132244;-2.979180
0.140;-3.171357;-3.003042
0.150;-3.202646;-3.029182
0.160;-3.224524;-3.055123
0.170;-3.236193;-3.078503
0.180;-3.237682;-3.097604
0.190;-3.229785;-3.111640
0.200;-3.213907;-3.120732
0.210;-3.191865;-3.125656
0.220;-3.165668;-3.127471
0.230;-3.137291;-3.127187
0.240;-3.108489;-3.125558
0.250;-3.080666;-3.123027
0.260;-3.054827;-3.119831
0.270;-3.031632;-3.116188
0.280;-3.011522;-3.112478
0.290;-2.994847;-3.109336
0.300;-2.981943;-3.107603
0.310;-2.973116;-3.108145
0.320;-2.968594;-3.111618
0.330;-2.968489;-3.118296
0.340;-2.972777;-3.128053
0.350;-2.981283;-3.140505
0.360;-2.993664;-3.155222
0.370;-3.009359;-3.171878
0.380;-3.027539;-3.190247
0.390;-3.047087;-3.209997
0.400;-3.066652;-3.230413
0.410;-3.084817;-3.250227
0.420;-3.100325;-3.267741
0.430;-3.112264;-3.281242
0.440;-3.120147;-3.289505
0.450;-3.123802;-3.292164
0.460;-3.123143;-3.289759
0.470;-3.117903;-3.283482
0.480;-3.107476;-3.274778
0.490;-3.090955;-3.264996
0.500;-3.067390;-3.255188
0.510;-3.036175;-3.246052
0.520;-2.997410;-3.237949
0.530;-2.952079;-3.230930
0.540;-2.901956;-3.224790
0.550;-2.849278;-3.219170
0.560;-2.796290;-3.213686
0.570;-2.744831;-3.208039
0.580;-2.696087;-3.202028
0.590;-2.650575;-3.195467
0.600;-2.608323;-3.188047
0.610;-2.569147;-3.179209
0.620;-2.532879;-3.168101
0.630;-2.499448;-3.153672
0.640;-2.468820;-3.134893
0.650;-2.440871;-3.111075
0.660;-2.415325;-3.082171
0.670;-2.391785;-3.048963
0.680;-2.369864;-3.013075
0.690;-2.349333;-2.976762
0.700;-2.330228;-2.942521
0.710;-2.312888;-2.912599
0.720;-2.297905;-2.888535
0.730;-2.286003;-2.870889
0.740;-2.277851;-2.859226
0.750;-2.273848;-2.852332
0.760;-2.273948;-2.848564
0.770;-2.277610;-2.846223
0.780;-2.283931;-2.843870
0.790;-2.291908;-2.840525
0.800;-2.300720;-2.835735
0.810;-2.309914;-2.829511
0.820;-2.319394;-2.822206
0.830;-2.329253;-2.814362
0.840;-2.339517;-2.806569
0.850;-2.349946;-2.799326
0.860;-2.359993;-2.792896
0.870;-2.368930;-2.787234
0.880;-2.376114;-2.782029
0.890;-2.381240;-2.776857
0.900;-2.384443;-2.771332
0.910;-2.386163;-2.765180
0.920;-2.386841;-2.758187
0.930;-2.386595;-2.750115
0.940;-2.385057;-2.740660
0.950;-2.381442;-2.729529
0.960;-2.374821;-2.716560
0.970;-2.364477;-2.701801
0.980;-2.350195;-2.685466
0.990;-2.332397;-2.667802
1.000;-2.312072;-2.648963
1.010;-2.290546;-2.629010
1.020;-2.269200;-2.608043
1.030;-2.249239;-2.586386
1.040;-2.231569;-2.564674
1.050;-2.216805;-2.543786
1.060;-2.205328;-2.524636
1.070;-2.197367;-2.507919
1.080;-2.193061;-2.493928
1.090;-2.192473;-2.482487
1.100;-2.195589;-2.473035
1.110;-2.202325;-2.464847
1.120;-2.212564;-2.457359
1.130;-2.226220;-2.450472
1.140;-2.243276;-2.444719
1.150;-2.263761;-2.441149
1.160;-2.287667;-2.440923
1.170;-2.314857;-2.444797
1.180;-2.344989;-2.452712
1.190;-2.377458;-2.463701
1.200;-2.411348;-2.476154
1.210;-2.445401;-2.488280
1.220;-2.478083;-2.498568
1.230;-2.507783;-2.506064
1.240;-2.533113;-2.510431
1.250;-2.553185;-2.511854
1.260;-2.567744;-2.510829
1.270;-2.577129;-2.507927
1.280;-2.582082;-2.503579
1.290;-2.583496;-2.497964
1.300;-2.582158;-2.491046
1.310;-2.578581;-2.482727
1.320;-2.573017;-2.472997
1.330;-2.565646;-2.461992
1.340;-2.556842;-2.449901
1.350;-2.547366;-2.436840
1.360;-2.538350;-2.422798
1.370;-2.531076;-2.407711
1.380;-2.526657;-2.391609
1.390;-2.525730;-2.374687
1.400;-2.528263;-2.357248
1.410;-2.533530;-2.339529
1.420;-2.540235;-2.321541
1.430;-2.546773;-2.303013
1.440;-2.551559;-2.283468
1.450;-2.553367;-2.262390
1.460;-2.551574;-2.239388
1.470;-2.546227;-2.214309
1.480;-2.537905;-2.187272
1.490;-2.527427;-2.158656
1.500;-2.515541;-2.129050
1.510;-2.502709;-2.099209
1.520;-2.489068;-2.070015
1.530;-2.474544;-2.042427
1.540;-2.458994;-2.017408
1.550;-2.442298;-1.995808
1.560;-2.424386;-1.978223
1.570;-2.405229;-1.964886
1.580;-2.384855;-1.955662
1.590;-2.363405;-1.950161
1.600;-2.341222;-1.947926
1.610;-2.318917;-1.948603
1.620;-2.297369;-1.952048
1.630;-2.277636;-1.958312
1.640;-2.260801;-1.967549
1.650;-2.247796;-1.979895
1.660;-2.239263;-1.995338
1.670;-2.235478;-2.013632
1.680;-2.236348;-2.034249
1.690;-2.241458;-2.056395
1.700;-2.250154;-2.079087
1.710;-2.261633;-2.101317
1.720;-2.275070;-2.122209
1.730;-2.289734;-2.141140
1.740;-2.305080;-2.157738
1.750;-2.320748;-2.171784
1.760;-2.336461;-2.183068
1.770;-2.351858;-2.191285
1.780;-2.366356;-2.196076
1.790;-2.379165;-2.197241
1.800;-2.389454;-2.195030
1.810;-2.396617;-2.190351
1.820;-2.400490;-2.184746
1.830;-2.401437;-2.180105
1.840;-2.400274;-2.178235
1.850;-2.398063;-2.180440
1.860;-2.395832;-2.187233
1.870;-2.394311;-2.198233
1.880;-2.393756;-2.212281
1.890;-2.393981;-2.227773
1.900;-2.394601;-2.243143
1.910;-2.395426;-2.257328
1.920;-2.396813;-2.270031
1.930;-2.399815;-2.281687
1.940;-2.405987;-2.293173
1.950;-2.416916;-2.305430
1.960;-2.433618;-2.319165
1.970;-2.456070;-2.334721
1.980;-2.483045;-2.352051
1.990;-2.512325;-2.370718
2.000;-2.541220;-2.389881
2.010;-2.567232;-2.408353
2.020;-2.588651;-2.424792
2.030;-2.604889;-2.438016
2.040;-2.616446;-2.447366
2.050;-2.624527;-2.452940
2.060;-2.630473;-2.455577
2.070;-2.635235;-2.456570
2.080;-2.639044;-2.457200
2.090;-2.641380;-2.458326
2.100;-2.641198;-2.460179
2.110;-2.637347;-2.462449
2.120;-2.629002;-2.464576
2.130;-2.615979;-2.466081
2.140;-2.598807;-2.466777
2.150;-2.578580;-2.466786
2.160;-2.556671;-2.466400
2.170;-2.534434;-2.465873
2.180;-2.512959;-2.465261
2.190;-2.492930;-2.464369
2.200;-2.474630;-2.462824
2.210;-2.458065;-2.460238
2.220;-2.443194;-2.456360
2.230;-2.430164;-2.451138
2.240;-2.419453;-2.444665
2.250;-2.411850;-2.437078
2.260;-2.408257;-2.428499
2.270;-2.409405;-2.419068
2.280;-2.415570;-2.409045
2.290;-2.426407;-2.398896
2.300;-2.440971;-2.389306
2.310;-2.457904;-2.381089
2.320;-2.475740;-2.375023
2.330;-2.493212;-2.371654
2.340;-2.509461;-2.371146
2.350;-2.524103;-2.373214
2.360;-2.537144;-2.377165
2.370;-2.548795;-2.382018
2.380;-2.559239;-2.386643
2.390;-2.568433;-2.389904
2.400;-2.576016;-2.390794
2.410;-2.581333;-2.388542
2.420;-2.583602;-2.382717
2.430;-2.582175;-2.373308
2.440;-2.576833;-2.360793
2.450;-2.567975;-2.346129
2.460;-2.556612;-2.330595
2.470;-2.544159;-2.315510
2.480;-2.532114;-2.301904
2.490;-2.521745;-2.290274
2.500;-2.513904;-2.280529
2.510;-2.508961;-2.272138
2.520;-2.506893;-2.264429
2.530;-2.507437;-2.256905
2.540;-2.510247;-2.249443
2.550;-2.514990;-2.242327
2.560;-2.521370;-2.236095
2.570;-2.529107;-2.231311
2.580;-2.537906;-2.228338
2.590;-2.547422;-2.227217
2.600;-2.557229;-2.227686
2.610;-2.566825;-2.229285
2.620;-2.575671;-2.231485
2.630;-2.583225;-2.233759
2.640;-2.588961;-2.235625
2.650;-2.592388;-2.236694
2.660;-2.593090;-2.236748
2.670;-2.590813;-2.235861
2.680;-2.585538;-2.234463
2.690;-2.577492;-2.233299
2.700;-2.567077;-2.233230
2.710;-2.554761;-2.234978
2.720;-2.541018;-2.238909
2.730;-2.526328;-2.244969
2.740;-2.511229;-2.252749
2.750;-2.496363;-2.261627
2.760;-2.482452;-2.270916
2.770;-2.470197;-2.279987
2.780;-2.460146;-2.288381
2.790;-2.452600;-2.295906
2.800;-2.447604;-2.302690
2.810;-2.445042;-2.309158
2.820;-2.444743;-2.315936
2.830;-2.446536;-2.323769
2.840;-2.450211;-2.333461
2.850;-2.455416;-2.345843
2.860;-2.461559;-2.361681
2.870;-2.467782;-2.381494
2.880;-2.473017;-2.405336
2.890;-2.476123;-2.432675
2.900;-2.476082;-2.462459
2.910;-2.472202;-2.493372
2.920;-2.464290;-2.524139
2.930;-2.452724;-2.553758
2.940;-2.438405;-2.581588
2.950;-2.422582;-2.607337
2.960;-2.406585;-2.631000
2.970;-2.391534;-2.652809
2.980;-2.378102;-2.673227
2.990;-2.366409;-2.692985
3.000;-2.356104;-2.713085
3.010;-2.346609;-2.734691
3.020;-2.337459;-2.758840
3.030;-2.328631;-2.786053
3.040;-2.320727;-2.815973
3.050;-2.314918;-2.847253
3.060;-2.312623;-2.877794
3.070;-2.315035;-2.905292
3.080;-2.322683;-2.927911
3.090;-2.335209;-2.944816
3.100;-2.351477;-2.956370
3.110;-2.369954;-2.963942
3.120;-2.389162;-2.969448
3.130;-2.407999;-2.974826
3.140;-2.425763;-2.981631
3.150;-2.441956;-2.990848
3.160;-2.456036;-3.002881
3.170;-2.467307;-3.017644
3.180;-2.475033;-3.034689
3.190;-2.478663;-3.053339
3.200;-2.478054;-3.072811
3.210;-2.473542;-3.092317
3.220;-2.465865;-3.111159
3.230;-2.455965;-3.128789
3.240;-2.444784;-3.144877
3.250;-2.433099;-3.159385
3.260;-2.421432;-3.172614
3.270;-2.410026;-3.185169
3.280;-2.398897;-3.197782
3.290;-2.387960;-3.211045
3.300;-2.377218;-3.225179
3.310;-2.366922;-3.239953
3.320;-2.357638;-3.254766
3.330;-2.350142;-3.268835
3.340;-2.345192;-3.281418
3.350;-2.343231;-3.292026
3.360;-2.344152;-3.300582
3.370;-2.347193;-3.307478
3.380;-2.351033;-3.313462
3.390;-2.354053;-3.319394
3.400;-2.354706;-3.325987
3.410;-2.351851;-3.333664
3.420;-2.344931;-3.342573
3.430;-2.333918;-3.352728
3.440;-2.319055;-3.364177
3.450;-2.300543;-3.377076
3.460;-2.278348;-3.391639
3.470;-2.252228;-3.408004
3.480;-2.221980;-3.426125
3.490;-2.187766;-3.445742
3.500;-2.150326;-3.466465
3.510;-2.110972;-3.487901
3.520;-2.071344;-3.509796
3.530;-2.033042;-3.532130
3.540;-1.997287;-3.555116
3.550;-1.964718;-3.579035
3.560;-1.935402;-3.603968
3.570;-1.909019;-3.629517
3.580;-1.885151;-3.654680
3.590;-1.863569;-3.678012
3.600;-1.844401;-3.698033
3.610;-1.828134;-3.713723
3.620;-1.815433;-3.724847
3.630;-1.806867;-3.731922
3.640;-1.802627;-3.735888
3.650;-1.802369;-3.737687
3.660;-1.805216;-3.737991
3.670;-1.809900;-3.737132
3.680;-1.814977;-3.735167
3.690;-1.819074;-3.731981
3.700;-1.821094;-3.727339
3.710;-1.820367;-3.720874
3.720;-1.816697;-3.712022
3.730;-1.810321;-3.700026
3.740;-1.801798;-3.684061
3.750;-1.791840;-3.663495
3.760;-1.781147;-3.638136
3.770;-1.770287;-3.608335
3.780;-1.759653;-3.574865
3.790;-1.749493;-3.538663
3.800;-1.739993;-3.500564
3.810;-1.731357;-3.461130
3.820;-1.723889;-3.420614
3.830;-1.718046;-3.379032
3.840;-1.714477;-3.336315
3.850;-1.714003;-3.292456
3.860;-1.717511;-3.247619
3.870;-1.725753;-3.202147
3.880;-1.739117;-3.156467
3.890;-1.757500;-3.110927
3.900;-1.780342;-3.065648
3.910;-1.806794;-3.020517
3.920;-1.835924;-2.975328
3.930;-1.866830;-2.929990
3.940;-1.898646;-2.884661
3.950;-1.930486;-2.839767
3.960;-1.961397;-2.795929
3.970;-1.990404;-2.753882
3.980;-2.016651;-2.714378
3.990;-2.039611;-2.678073
4.000;-2.059245;-2.645380
4.010;-2.076027;-2.616343
4.020;-2.090781;-2.590583
4.030;-2.104409;-2.567324
4.040;-2.117616;-2.545482
4.050;-2.130769;-2.523819
4.060;-2.143921;-2.501185
4.070;-2.156972;-2.476814
4.080;-2.169842;-2.450602
4.090;-2.182583;-2.423218
4.100;-2.195406;-2.395953
4.110;-2.208694;-2.370344
4.120;-2.223039;-2.347718
4.130;-2.239241;-2.328803
4.140;-2.258206;-2.313547
4.150;-2.280709;-2.301179
4.160;-2.307113;-2.290482
4.170;-2.337191;-2.280192
4.180;-2.370164;-2.269397
4.190;-2.404920;-2.257817
4.200;-2.440264;-2.245878
4.210;-2.475080;-2.234562
4.220;-2.508344;-2.225097
4.230;-2.539083;-2.218606
4.240;-2.566350;-2.215830
4.250;-2.589279;-2.217017
4.260;-2.607187;-2.221968
4.270;-2.619666;-2.230197
4.280;-2.626622;-2.241103
4.290;-2.628243;-2.254061
4.300;-2.624919;-2.268418
4.310;-2.617159;-2.283467
4.320;-2.605518;-2.298476
4.330;-2.590579;-2.312762
4.340;-2.572952;-2.325785
4.350;-2.553261;-2.337199
4.360;-2.532117;-2.346846
4.370;-2.510094;-2.354707
4.380;-2.487733;-2.360845
4.390;-2.465591;-2.365346
4.400;-2.444292;-2.368265
4.410;-2.424535;-2.369560
4.420;-2.407044;-2.369062
4.430;-2.392473;-2.366490
4.440;-2.381305;-2.361536
4.450;-2.373760;-2.354014
4.460;-2.369739;-2.344025
4.470;-2.368825;-2.332089
4.480;-2.370351;-2.319196
4.490;-2.373555;-2.306718
4.500;-2.377764;-2.296191
4.510;-2.382547;-2.288994
4.520;-2.387778;-2.286027
4.530;-2.393587;-2.287490
4.540;-2.400245;-2.292849
4.550;-2.408001;-2.300983
4.560;-2.416930;-2.310448
4.570;-2.426806;-2.319783
4.580;-2.437059;-2.327776
4.590;-2.446866;-2.333669
4.600;-2.455352;-2.337247
4.610;-2.461881;-2.338816
4.620;-2.466308;-2.339058
4.630;-2.469070;-2.338798
4.640;-2.471073;-2.338761
4.650;-2.473410;-2.339368
4.660;-2.477058;-2.340651
4.670;-2.482693;-2.342259
4.680;-2.490644;-2.343571
4.690;-2.500951;-2.343871
4.700;-2.513437;-2.342562
4.710;-2.527722;-2.339367
4.720;-2.543222;-2.334429
4.730;-2.559192;-2.328269
4.740;-2.574832;-2.321625
4.750;-2.589451;-2.315223
4.760;-2.602626;-2.309616
4.770;-2.614297;-2.305117
4.780;-2.624740;-2.301852
4.790;-2.634414;-2.299838
4.800;-2.643699;-2.299009
4.810;-2.652636;-2.299143
4.820;-2.660781;-2.299750
4.830;-2.667274;-2.300036
4.840;-2.671101;-2.298999
4.850;-2.671442;-2.295661
4.860;-2.667967;-2.289329
4.870;-2.660952;-2.279799
4.880;-2.651219;-2.267426
4.890;-2.639949;-2.253059
4.900;-2.628446;-2.237841
4.910;-2.617918;-2.222970
4.920;-2.609310;-2.209459
4.930;-2.603183;-2.197980
4.940;-2.599660;-2.188778
4.950;-2.598464;-2.181688
4.960;-2.599072;-2.176261
4.970;-2.600943;-2.171965
4.980;-2.603737;-2.168379
4.990;-2.607440;-2.165309
5.000;-2.612316;-2.162748
5.010;-2.618747;-2.160729
5.020;-2.627019;-2.159147
5.030;-2.637159;-2.157704
5.040;-2.648865;-2.156014
5.050;-2.661529;-2.153850
5.060;-2.674322;-2.151364
5.070;-2.686354;-2.149148
5.080;-2.696886;-2.148060
5.090;-2.705528;-2.148853
5.100;-2.712330;-2.151788
5.110;-2.717736;-2.156420
5.120;-2.722410;-2.161694
5.130;-2.727028;-2.166306
5.140;-2.732094;-2.169145
5.150;-2.737833;-2.169625
5.160;-2.744171;-2.167765
5.170;-2.750813;-2.164057
5.180;-2.757400;-2.159186
5.190;-2.763688;-2.153755
5.200;-2.769661;-2.148080
5.210;-2.775541;-2.142139
5.220;-2.781677;-2.135631
5.230;-2.788388;-2.128128
5.240;-2.795864;-2.119227
5.250;-2.804143;-2.108711
5.260;-2.813129;-2.096681
5.270;-2.822607;-2.083662
5.280;-2.832229;-2.070610
5.290;-2.841529;-2.058762
5.300;-2.850000;-2.049309
5.310;-2.857217;-2.043000
5.320;-2.862947;-2.039880
5.330;-2.867186;-2.039307
5.340;-2.870096;-2.040235
5.350;-2.871884;-2.041641
5.360;-2.872677;-2.042892
5.370;-2.872442;-2.043901
5.380;-2.870995;-2.045012
5.390;-2.868095;-2.046699
5.400;-2.863571;-2.049225
5.410;-2.857406;-2.052437
5.420;-2.849728;-2.055772
5.430;-2.840708;-2.058439
5.440;-2.830438;-2.059696
5.450;-2.818868;-2.059096
5.460;-2.805825;-2.056603
5.470;-2.791090;-2.052544
5.480;-2.774475;-2.047448
5.490;-2.755881;-2.041877
5.500;-2.735321;-2.036334
5.510;-2.712950;-2.031236
5.520;-2.689088;-2.026941
5.530;-2.664219;-2.023751
5.540;-2.638943;-2.021901
5.550;-2.613847;-2.021533
5.560;-2.589357;-2.022704
5.570;-2.565634;-2.025446
5.580;-2.542560;-2.029845
5.590;-2.519826;-2.036107
5.600;-2.497052;-2.044554
5.610;-2.473907;-2.055548
5.620;-2.450190;-2.069355
5.630;-2.425868;-2.085989
5.640;-2.401061;-2.105118
5.650;-2.375999;-2.126084
5.660;-2.350922;-2.148040
5.670;-2.325990;-2.170155
5.680;-2.301215;-2.191757
5.690;-2.276514;-2.212393
5.700;-2.251864;-2.231786
5.710;-2.227483;-2.249751
5.720;-2.203895;-2.266122
5.730;-2.181838;-2.280770
5.740;-2.162050;-2.293686
5.750;-2.145071;-2.305080
5.760;-2.131143;-2.315409
5.770;-2.120232;-2.325294
5.780;-2.112156;-2.335377
5.790;-2.106742;-2.346176
5.800;-2.103941;-2.358000
5.810;-2.103892;-2.370944
5.820;-2.106914;-2.384949
5.830;-2.113455;-2.399882
5.840;-2.123974;-2.415581
5.850;-2.138787;-2.431844
5.860;-2.157892;-2.448368
5.870;-2.180860;-2.464681
5.880;-2.206823;-2.480116
5.890;-2.234615;-2.493888
5.900;-2.263046;-2.505296
5.910;-2.291219;-2.513984
5.920;-2.318768;-2.520135
5.930;-2.345911;-2.524481
5.940;-2.373289;-2.528083
5.950;-2.401654;-2.531960
5.960;-2.431549;-2.536749
5.970;-2.463092;-2.542514
5.980;-2.495943;-2.548756
5.990;-2.529449;-2.554570
6.000;-2.562873;-2.558874
6.010;-2.595626;-2.560678
6.020;-2.627397;-2.559331
6.030;-2.658153;-2.554715
6.040;-2.688063;-2.547301
6.050;-2.717358;-2.538044
6.060;-2.746199;-2.528111
6.070;-2.774540;-2.518561
6.080;-2.802050;-2.510089
6.090;-2.828098;-2.502905
6.100;-2.851841;-2.496763
6.110;-2.872385;-2.491094
6.120;-2.888978;-2.485204
6.130;-2.901184;-2.478461
6.140;-2.908958;-2.470411
6.150;-2.912621;-2.460767
6.160;-2.912727;-2.449372
6.170;-2.909897;-2.436191
6.180;-2.904691;-2.421406
6.190;-2.897562;-2.405549
6.200;-2.888864;-2.389560
6.210;-2.878848;-2.374699
6.220;-2.867640;-2.362279
6.230;-2.855177;-2.353308
6.240;-2.841196;-2.348184
6.250;-2.825275;-2.346567
6.260;-2.806931;-2.347494
6.270;-2.785723;-2.349713
6.280;-2.761323;-2.352108
6.290;-2.733583;-2.354105
6.300;-2.702593;-2.355870
6.310;-2.668734;-2.358221
6.320;-2.632702;-2.362301
6.330;-2.595454;-2.369154
6.340;-2.558070;-2.379392
6.350;-2.521548;-2.393039
6.360;-2.486627;-2.409535
6.370;-2.453726;-2.427878
6.380;-2.423019;-2.446839
6.390;-2.394591;-2.465255
6.400;-2.368565;-2.482309
6.410;-2.345145;-2.497736
6.420;-2.324537;-2.511897
6.430;-2.306796;-2.525701
6.440;-2.291691;-2.540364
6.450;-2.278670;-2.557046
6.460;-2.266984;-2.576494
6.470;-2.255934;-2.598819
6.480;-2.245109;-2.623544
6.490;-2.234505;-2.649868
6.500;-2.224467;-2.676997
6.510;-2.215523;-2.704373
6.520;-2.208186;-2.731710
6.530;-2.202829;-2.758874
6.540;-2.199637;-2.785733
6.550;-2.198602;-2.812103
6.560;-2.199508;-2.837814
6.570;-2.201890;-2.862835
6.580;-2.205021;-2.887333
6.590;-2.208016;-2.911623
6.600;-2.210045;-2.935990
6.610;-2.210584;-2.960496
6.620;-2.209581;-2.984894
6.630;-2.207403;-3.008768
6.640;-2.204580;-3.031848
6.650;-2.201443;-3.054336
6.660;-2.197871;-3.077035
6.670;-2.193300;-3.101197
6.680;-2.187014;-3.128135
6.690;-2.178550;-3.158783
6.700;-2.167986;-3.193402
6.710;-2.155974;-3.231545
6.720;-2.143480;-3.272250
6.730;-2.131382;-3.314354
6.740;-2.120122;-3.356764
6.750;-2.109572;-3.398616
6.760;-2.099153;-3.439287
6.770;-2.088114;-3.478276
6.780;-2.075865;-3.515042
6.790;-2.062242;-3.548873
6.800;-2.047671;-3.578912
6.810;-2.033160;-3.604334
6.820;-2.020137;-3.624606
6.830;-2.010156;-3.639688
6.840;-2.004557;-3.650088
6.850;-2.004168;-3.656749
6.860;-2.009137;-3.660830
6.870;-2.018965;-3.663472
6.880;-2.032745;-3.665605
6.890;-2.049537;-3.667829
6.900;-2.068707;-3.670361
6.910;-2.090085;-3.673059
6.920;-2.113845;-3.675497
6.930;-2.140184;-3.677127
6.940;-2.168970;-3.677465
6.950;-2.199553;-3.676244
6.960;-2.230827;-3.673453
6.970;-2.261507;-3.669240
6.980;-2.290495;-3.663755
6.990;-2.317201;-3.657036
7.000;-2.341674;-3.648993
7.010;-2.364515;-3.639488
7.020;-2.386596;-3.628493
7.030;-2.408714;-3.616241
7.040;-2.431320;-3.603306
7.050;-2.454431;-3.590498
7.060;-2.477718;-3.578558
7.070;-2.500739;-3.567771
7.080;-2.523217;-3.557687
7.090;-2.545263;-3.547141
7.100;-2.567481;-3.534589
7.110;-2.590869;-3.518642
7.120;-2.616513;-3.498587
7.130;-2.645157;-3.474703
7.140;-2.676848;-3.448250
7.150;-2.710820;-3.421124
7.160;-2.745674;-3.395290
7.170;-2.779739;-3.372194
7.180;-2.811484;-3.352434
7.190;-2.839817;-3.335810
7.200;-2.864225;-3.321693
7.210;-2.884731;-3.309515
7.220;-2.901717;-3.299126
7.230;-2.915669;-3.290898
7.240;-2.926954;-3.285558
7.250;-2.935709;-3.283811
7.260;-2.941875;-3.285927
7.270;-2.945314;-3.291487
7.280;-2.945958;-3.299413
7.290;-2.943939;-3.308290
7.300;-2.939676;-3.316805
7.310;-2.933874;-3.324073
7.320;-2.927423;-3.329719
7.330;-2.921198;-3.333728
7.340;-2.915861;-3.336196
7.350;-2.911752;-3.337121
7.360;-2.908944;-3.336348
7.370;-2.907432;-3.333662
7.380;-2.907341;-3.328962
7.390;-2.909028;-3.322410
7.400;-2.913034;-3.314503
7.410;-2.919891;-3.306039
7.420;-2.929893;-3.297985
7.430;-2.942903;-3.291269
7.440;-2.958283;-3.286536
7.450;-2.974945;-3.283979
7.460;-2.991516;-3.283277
7.470;-3.006571;-3.283674
7.480;-3.018890;-3.284184
7.490;-3.027719;-3.283854
7.500;-3.032984;-3.282015
7.510;-3.035356;-3.278429
7.520;-3.036133;-3.273272
7.530;-3.036917;-3.266973
7.540;-3.039193;-3.260004
7.550;-3.043916;-3.252687
7.560;-3.051271;-3.245074
7.570;-3.060690;-3.236919
7.580;-3.071135;-3.227772
7.590;-3.081523;-3.217183
7.600;-3.091109;-3.204933
7.610;-3.099686;-3.191214
7.620;-3.107584;-3.176663
7.630;-3.115531;-3.162244
7.640;-3.124421;-3.149026
7.650;-3.135038;-3.137935
7.660;-3.147807;-3.129549
7.670;-3.162652;-3.123999
7.680;-3.179013;-3.120964
