Time[s];COPx[cm];COPy[cm]
0.010;-1.096917;-2.601335
0.020;-1.117039;-2.597282
0.030;-1.135437;-2.593476
0.040;-1.150820;-2.589851
0.050;-1.162573;-2.586051
0.060;-1.170780;-2.581444
0.070;-1.176043;-2.575305
0.080;-1.179234;-2.567119
0.090;-1.181280;-2.556862
0.100;-1.183000;-2.545096
0.110;-1.184996;-2.532791
0.120;-1.187578;-2.520955
0.130;-1.190753;-2.510249
0.140;-1.194271;-2.500714
0.150;-1.197725;-2.491708
0.160;-1.200681;-2.482057
0.170;-1.202798;-2.470418
0.180;-1.203928;-2.455722
0.190;-1.204159;-2.437504
0.200;-1.203829;-2.415947
0.210;-1.203506;-2.391652
0.220;-1.203935;-2.365299
0.230;-1.205951;-2.337416
0.240;-1.210355;-2.308347
0.250;-1.217743;-2.278381
0.260;-1.228324;-2.247904
0.270;-1.241804;-2.217486
0.280;-1.257403;-2.187810
0.290;-1.274015;-2.159467
0.300;-1.290494;-2.132723
0.310;-1.305983;-2.107385
0.320;-1.320174;-2.082855
0.330;-1.333376;-2.058329
0.340;-1.346316;-2.033044
0.350;-1.359728;-2.006516
0.360;-1.373898;-1.978693
0.370;-1.388393;-1.950050
0.380;-1.402066;-1.921571
0.390;-1.413328;-1.894626
0.400;-1.420511;-1.870717
0.410;-1.422165;-1.851156
0.420;-1.417206;-1.836751
0.430;-1.404942;-1.827637
0.440;-1.385050;-1.823293
0.450;-1.357597;-1.822734
0.460;-1.323109;-1.824717
0.470;-1.282634;-1.827865
0.480;-1.237735;-1.830691
0.490;-1.190355;-1.831629
0.500;-1.142570;-1.829153
0.510;-1.096292;-1.822010
0.520;-1.053007;-1.809453
0.530;-1.013612;-1.791380
0.540;-0.978385;-1.768316
0.550;-0.947064;-1.741255
0.560;-0.919026;-1.711467
0.570;-0.893523;-1.680295
0.580;-0.869934;-1.648963
0.590;-0.847979;-1.618396
0.600;-0.827816;-1.589087
0.610;-0.809999;-1.561054
0.620;-0.795318;-1.533916
0.630;-0.784585;-1.507085
0.640;-0.778374;-1.479960
0.650;-0.776776;-1.452055
0.660;-0.779180;-1.422980
0.670;-0.784181;-1.392356
0.680;-0.789705;-1.359778
0.690;-0.793412;-1.324863
0.700;-0.793316;-1.287387
0.710;-0.788397;-1.247412
0.720;-0.778936;-1.205393
0.730;-0.766355;-1.162222
0.740;-0.752581;-1.119191
0.750;-0.739181;-1.077857
0.760;-0.726629;-1.039813
0.770;-0.714003;-1.006437
0.780;-0.699242;-0.978675
0.790;-0.679862;-0.956932
0.800;-0.653860;-0.941122
0.810;-0.620494;-0.930828
0.820;-0.580685;-0.925489
0.830;-0.536931;-0.924525
0.840;-0.492790;-0.927381
0.850;-0.452090;-0.933523
0.860;-0.418108;-0.942428
0.870;-0.392914;-0.953607
0.880;-0.377039;-0.966664
0.890;-0.369493;-0.981336
0.900;-0.368100;-0.997479
0.910;-0.370029;-1.015016
0.920;-0.372391;-1.033916
0.930;-0.372775;-1.054254
0.940;-0.369596;-1.076280
0.950;-0.362219;-1.100405
0.960;-0.350889;-1.127019
0.970;-0.336512;-1.156234
0.980;-0.320376;-1.187733
0.990;-0.303878;-1.220820
1.000;-0.288318;-1.254652
1.010;-0.274749;-1.288494
1.020;-0.263845;-1.321874
1.030;-0.255759;-1.354586
1.040;-0.250043;-1.386584
1.050;-0.245728;-1.417874
1.060;-0.241604;-1.448457
1.070;-0.236612;-1.478373
1.080;-0.230185;-1.507786
1.090;-0.222415;-1.537052
1.100;-0.213964;-1.566680
1.110;-0.205765;-1.597174
1.120;-0.198594;-1.628826
1.130;-0.192674;-1.661538
1.140;-0.187512;-1.694748
1.150;-0.182061;-1.727447
1.160;-0.175193;-1.758331
1.170;-0.166230;-1.786088
1.180;-0.155266;-1.809788
1.190;-0.143111;-1.829240
1.200;-0.130900;-1.845140
1.210;-0.119606;-1.858954
1.220;-0.109708;-1.872581
1.230;-0.101163;-1.887901
1.240;-0.093612;-1.906336
1.250;-0.086672;-1.928497
1.260;-0.080088;-1.954013
1.270;-0.073684;-1.981635
1.280;-0.067179;-2.009634
1.290;-0.060015;-2.036368
1.300;-0.051358;-2.060780
1.310;-0.040276;-2.082611
1.320;-0.026048;-2.102252
1.330;-0.008433;-2.120388
1.340;0.012244;-2.137661
1.350;0.035238;-2.154519
1.360;0.059704;-2.171262
1.370;0.084989;-2.188183
1.380;0.110757;-2.205694
1.390;0.136896;-2.224400
1.400;0.163314;-2.245095
1.410;0.189777;-2.268671
1.420;0.215876;-2.295890
1.430;0.241125;-2.327038
1.440;0.265086;-2.361601
1.450;0.287446;-2.398172
1.460;0.308051;-2.434708
1.470;0.326959;-2.469064
1.480;0.344527;-2.499560
1.490;0.361465;-2.525333
1.500;0.378756;-2.546369
1.510;0.397428;-2.563286
1.520;0.418271;-2.577015
1.530;0.441615;-2.588547
1.540;0.467262;-2.598772
1.550;0.494560;-2.608423
1.560;0.522563;-2.618076
1.570;0.550208;-2.628155
1.580;0.576466;-2.638937
1.590;0.600455;-2.650555
1.600;0.621510;-2.662984
1.610;0.639240;-2.676004
1.620;0.653566;-2.689151
1.630;0.664737;-2.701700
1.640;0.673332;-2.712719
1.650;0.680214;-2.721204
1.660;0.686414;-2.726272
1.670;0.692937;-2.727294
1.680;0.700514;-2.723933
1.690;0.709389;-2.716099
1.700;0.719230;-2.703888
1.710;0.729229;-2.687552
1.720;0.738333;-2.667480
1.730;0.745535;-2.644154
1.740;0.750119;-2.618049
1.750;0.751796;-2.589507
1.760;0.750714;-2.558636
1.770;0.747362;-2.525275
1.780;0.742404;-2.489056
1.790;0.736515;-2.449531
1.800;0.730298;-2.406355
1.810;0.724241;-2.359480
1.820;0.718693;-2.309349
1.830;0.713837;-2.257010
1.840;0.709681;-2.204067
1.850;0.706141;-2.152468
1.860;0.703155;-2.104196
1.870;0.700774;-2.060960
1.880;0.699101;-2.023970
1.890;0.698103;-1.993817
1.900;0.697383;-1.970451
1.910;0.696049;-1.953270
1.920;0.692758;-1.941236
1.930;0.685916;-1.932994
1.940;0.673982;-1.926986
1.950;0.655764;-1.921582
1.960;0.630616;-1.915268
1.970;0.598459;-1.906853
1.980;0.559676;-1.895637
1.990;0.514959;-1.881477
2.000;0.465209;-1.864758
2.010;0.411493;-1.846313
2.020;0.355056;-1.827336
2.030;0.297331;-1.809244
2.040;0.239942;-1.793395
2.050;0.184657;-1.780722
2.060;0.133275;-1.771443
2.070;0.087449;-1.765021
2.080;0.048494;-1.760415
2.090;0.017267;-1.756469
2.100;-0.005888;-1.752271
2.110;-0.021101;-1.747343
2.120;-0.028909;-1.741630
2.130;-0.030167;-1.735316
2.140;-0.025958;-1.728571
2.150;-0.017495;-1.721306
2.160;-0.005982;-1.713041
2.170;0.007551;-1.702934
2.180;0.022381;-1.689983
2.190;0.038105;-1.673371
2.200;0.054509;-1.652792
2.210;0.071344;-1.628635
2.220;0.088105;-1.601951
2.230;0.103940;-1.574253
2.240;0.117740;-1.547231
2.250;0.128358;-1.522484
2.260;0.134842;-1.501268
2.270;0.136568;-1.484289
2.280;0.133227;-1.471560
2.290;0.124703;-1.462370
2.300;0.110911;-1.455398
2.310;0.091691;-1.448989
2.320;0.066830;-1.441598
2.330;0.036253;-1.432287
2.340;0.000290;-1.421156
2.350;-0.040121;-1.409529
2.360;-0.083434;-1.399799
2.370;-0.127727;-1.394881
2.380;-0.171076;-1.397405
2.390;-0.211972;-1.408922
2.400;-0.249618;-1.429456
2.410;-0.284024;-1.457573
2.420;-0.315843;-1.490905
2.430;-0.345985;-1.526864
2.440;-0.375193;-1.563265
2.450;-0.403749;-1.598678
2.460;-0.431480;-1.632439
2.470;-0.458016;-1.664452
2.480;-0.483109;-1.694927
2.490;-0.506808;-1.724207
2.500;-0.529382;-1.752712
2.510;-0.551083;-1.780857
2.520;-0.571886;-1.808879
2.530;-0.591343;-1.836578
2.540;-0.608608;-1.863166
2.550;-0.622618;-1.887344
2.560;-0.632352;-1.907615
2.570;-0.637111;-1.922714
2.580;-0.636733;-1.932005
2.590;-0.631707;-1.935670
2.600;-0.623159;-1.934633
2.610;-0.612683;-1.930220
2.620;-0.602023;-1.923686
2.630;-0.592651;-1.915788
2.640;-0.585342;-1.906579
2.650;-0.579921;-1.895508
2.660;-0.575278;-1.881778
2.670;-0.569667;-1.864789
2.680;-0.561170;-1.844429
2.690;-0.548173;-1.821110
2.700;-0.529702;-1.795558
2.710;-0.505523;-1.768573
2.720;-0.476013;-1.740857
2.730;-0.441893;-1.712960
2.740;-0.403960;-1.685285
2.750;-0.362956;-1.658135
2.760;-0.319616;-1.631770
2.770;-0.274834;-1.606453
2.780;-0.229814;-1.582490
2.790;-0.186087;-1.560225
2.800;-0.145336;-1.540004
2.810;-0.109035;-1.522097
2.820;-0.078043;-1.506605
2.830;-0.052314;-1.493394
2.840;-0.030871;-1.482097
2.850;-0.012111;-1.472178
2.860;0.005653;-1.463034
2.870;0.023631;-1.454101
2.880;0.042230;-1.444962
2.890;0.061144;-1.435432
2.900;0.079829;-1.425624
2.910;0.098081;-1.415961
2.920;0.116386;-1.407136
2.930;0.135810;-1.399991
2.940;0.157539;-1.395349
2.950;0.182318;-1.393804
2.960;0.210128;-1.395544
2.970;0.240196;-1.400267
2.980;0.271275;-1.407217
2.990;0.302048;-1.415360
3.000;0.331465;-1.423647
3.010;0.358941;-1.431321
3.020;0.384372;-1.438149
3.030;0.408003;-1.444460
3.040;0.430221;-1.450957
3.050;0.451362;-1.458408
3.060;0.471583;-1.467364
3.070;0.490813;-1.478043
3.080;0.508750;-1.490349
3.090;0.524896;-1.503978
3.100;0.538632;-1.518523
3.110;0.549320;-1.533522
3.120;0.556390;-1.548453
3.130;0.559381;-1.562715
3.140;0.557958;-1.575640
3.150;0.551949;-1.586561
3.160;0.541399;-1.594942
3.170;0.526632;-1.600546
3.180;0.508253;-1.603594
3.190;0.487036;-1.604759
3.200;0.463747;-1.604954
3.210;0.438987;-1.604960
3.220;0.413103;-1.605093
3.230;0.386237;-1.605092
3.240;0.358467;-1.604296
3.250;0.329985;-1.601961
3.260;0.301231;-1.597553
3.270;0.272961;-1.590892
3.280;0.246241;-1.582168
3.290;0.222404;-1.571888
3.300;0.202918;-1.560746
3.310;0.189167;-1.549459
3.320;0.182139;-1.538589
3.330;0.182118;-1.528466
3.340;0.188496;-1.519199
3.350;0.199804;-1.510749
3.360;0.213963;-1.502974
3.370;0.228693;-1.495613
3.380;0.241936;-1.488257
3.390;0.252168;-1.480396
3.400;0.258502;-1.471578
3.410;0.260577;-1.461601
3.420;0.258295;-1.450583
3.430;0.251538;-1.438868
3.440;0.239987;-1.426808
3.450;0.223193;-1.414587
3.460;0.200890;-1.402186
3.470;0.173427;-1.389538
3.480;0.142073;-1.376737
3.490;0.109015;-1.364199
3.500;0.077012;-1.352647
3.510;0.048803;-1.342952
3.520;0.026480;-1.335916
3.530;0.011003;-1.332094
3.540;0.002017;-1.331671
3.550;-0.001981;-1.334410
3.560;-0.003176;-1.339651
3.570;-0.003823;-1.346391
3.580;-0.005637;-1.353419
3.590;-0.009347;-1.359506
3.600;-0.014540;-1.363598
3.610;-0.019837;-1.365013
3.620;-0.023346;-1.363596
3.630;-0.023204;-1.359808
3.640;-0.018050;-1.354705
3.650;-0.007289;-1.349750
3.660;0.008839;-1.346486
3.670;0.029339;-1.346133
3.680;0.052623;-1.349298
3.690;0.076715;-1.355891
3.700;0.099465;-1.365306
3.710;0.118777;-1.376730
3.720;0.132860;-1.389471
3.730;0.140472;-1.403171
3.740;0.141136;-1.417846
3.750;0.135252;-1.433739
3.760;0.124050;-1.451079
3.770;0.109393;-1.469862
3.780;0.093483;-1.489770
3.790;0.078536;-1.510244
3.800;0.066479;-1.530611
3.810;0.058686;-1.550220
3.820;0.055827;-1.568547
3.830;0.057862;-1.585321
3.840;0.064181;-1.600637
3.850;0.073829;-1.614994
3.860;0.085715;-1.629174
3.870;0.098767;-1.643938
3.880;0.112048;-1.659700
3.890;0.124820;-1.676330
3.900;0.136581;-1.693220
3.910;0.147073;-1.709544
3.920;0.156268;-1.724557
3.930;0.164341;-1.737810
3.940;0.171623;-1.749238
3.950;0.178526;-1.759147
3.960;0.185429;-1.768119
3.970;0.192562;-1.776848
3.980;0.199915;-1.785931
3.990;0.207229;-1.795689
4.000;0.214072;-1.806101
4.010;0.220031;-1.816915
4.020;0.224932;-1.827878
4.030;0.229045;-1.838975
4.040;0.233158;-1.850549
4.050;0.238472;-1.863224
4.060;0.246325;-1.877701
4.070;0.257837;-1.894532
4.080;0.273636;-1.914007
4.090;0.293785;-1.936157
4.100;0.317941;-1.960827
4.110;0.345668;-1.987706
4.120;0.376730;-2.016293
4.130;0.411220;-2.045825
4.140;0.449473;-2.075320
4.150;0.491819;-2.103778
4.160;0.538349;-2.130483
4.170;0.588794;-2.155270
4.180;0.642586;-2.178597
4.190;0.699016;-2.201377
4.200;0.757384;-2.224675
4.210;0.817072;-2.249397
4.220;0.877543;-2.276092
4.230;0.938329;-2.304890
4.240;0.999034;-2.335554
4.250;1.059366;-2.367624
4.260;1.119157;-2.400595
4.270;1.178348;-2.434043
4.280;1.236909;-2.467634
4.290;1.294743;-2.501045
4.300;1.351613;-2.533899
4.310;1.407111;-2.565807
4.320;1.460667;-2.596534
4.330;1.511614;-2.626151
4.340;1.559285;-2.655060
4.350;1.603097;-2.683804
4.360;1.642601;-2.712767
4.370;1.677500;-2.741947
4.380;1.707659;-2.770939
4.390;1.733157;-2.799137
4.400;1.754355;-2.826004
4.410;1.771944;-2.851240
4.420;1.786876;-2.874772
4.430;1.800180;-2.896626
4.440;1.812724;-2.916759
4.450;1.825014;-2.934975
4.460;1.837110;-2.951011
4.470;1.848635;-2.964764
4.480;1.858881;-2.976482
4.490;1.867016;-2.986695
4.500;1.872340;-2.995859
4.510;1.874540;-3.003934
4.520;1.873820;-3.010198
4.530;1.870834;-3.013455
4.540;1.866442;-3.012465
4.550;1.861403;-3.006355
4.560;1.856110;-2.994822
4.570;1.850453;-2.978140
4.580;1.843811;-2.957076
4.590;1.835154;-2.932808
4.600;1.823205;-2.906833
4.610;1.806585;-2.880828
4.620;1.783907;-2.856396
4.630;1.753857;-2.834781
4.640;1.715316;-2.816629
4.650;1.667509;-2.801879
4.660;1.610118;-2.789788
4.670;1.543292;-2.779118
4.680;1.467574;-2.768480
4.690;1.383778;-2.756778
4.700;1.292886;-2.743602
4.710;1.195985;-2.729363
4.720;1.094292;-2.715070
4.730;0.989228;-2.701854
4.740;0.882538;-2.690431
4.750;0.776393;-2.680765
4.760;0.673393;-2.672098
4.770;0.576409;-2.663321
4.780;0.488222;-2.653520
4.790;0.411027;-2.642440
4.800;0.345990;-2.630653
4.810;0.293004;-2.619340
4.820;0.250757;-2.609776
4.830;0.217055;-2.602747
4.840;0.189291;-2.598169
4.850;0.164923;-2.595114
4.860;0.141831;-2.592242
4.870;0.118511;-2.588441
4.880;0.094099;-2.583339
4.890;0.068286;-2.577452
4.900;0.041144;-2.571948
4.910;0.012901;-2.568182
4.920;-0.016317;-2.567230
4.930;-0.046728;-2.569612
4.940;-0.079052;-2.575282
4.950;-0.114541;-2.583849
4.960;-0.154840;-2.594916
4.970;-0.201675;-2.608335
4.980;-0.256429;-2.624230
4.990;-0.319706;-2.642786
5.000;-0.391052;-2.663907
5.010;-0.468918;-2.686986
5.020;-0.550890;-2.710905
5.030;-0.634050;-2.734300
5.040;-0.715305;-2.755997
5.050;-0.791626;-2.775391
5.060;-0.860233;-2.792598
5.070;-0.918834;-2.808316
5.080;-0.965925;-2.823519
5.090;-1.001128;-2.839154
5.100;-1.025448;-2.855964
5.110;-1.041290;-2.874398
5.120;-1.052109;-2.894569
5.130;-1.061700;-2.916201
5.140;-1.073307;-2.938593
5.150;-1.088856;-2.960643
5.160;-1.108566;-2.981011
5.170;-1.131060;-2.998419
5.180;-1.153930;-3.012027
5.190;-1.174582;-3.021693
5.200;-1.191086;-3.027998
5.210;-1.202803;-3.031983
5.220;-1.210605;-3.034750
5.230;-1.216616;-3.037103
5.240;-1.223560;-3.039372
5.250;-1.233931;-3.041419
5.260;-1.249280;-3.042749
5.270;-1.269843;-3.042668
5.280;-1.294566;-3.040479
5.290;-1.321444;-3.035683
5.300;-1.348012;-3.028095
5.310;-1.371825;-3.017839
5.320;-1.390838;-3.005232
5.330;-1.403665;-2.990658
5.340;-1.409727;-2.974520
5.350;-1.409318;-2.957262
5.360;-1.403576;-2.939402
5.370;-1.394352;-2.921472
5.380;-1.383987;-2.903881
5.390;-1.375013;-2.886764
5.400;-1.369804;-2.869954
5.410;-1.370218;-2.853142
5.420;-1.377301;-2.836157
5.430;-1.391123;-2.819209
5.440;-1.410800;-2.802963
5.450;-1.434675;-2.788397
5.460;-1.460588;-2.776494
5.470;-1.486195;-2.767890
5.480;-1.509297;-2.762618
5.490;-1.528212;-2.760086
5.500;-1.542169;-2.759300
5.510;-1.551625;-2.759268
5.520;-1.558323;-2.759412
5.530;-1.564995;-2.759819
5.540;-1.574733;-2.761222
5.550;-1.590214;-2.764745
5.560;-1.613007;-2.771491
5.570;-1.643164;-2.782125
5.580;-1.679184;-2.796583
5.590;-1.718296;-2.814028
5.600;-1.756940;-2.833103
5.610;-1.791315;-2.852376
5.620;-1.817907;-2.870772
5.630;-1.833937;-2.887803
5.640;-1.837689;-2.903501
5.650;-1.828664;-2.918141
5.660;-1.807602;-2.931909
5.670;-1.776400;-2.944664
5.680;-1.737937;-2.955918
5.690;-1.695753;-2.965021
5.700;-1.653546;-2.971416
5.710;-1.614525;-2.974818
5.720;-1.580767;-2.975246
5.730;-1.552729;-2.973010
5.740;-1.529078;-2.968685
5.750;-1.506882;-2.963091
5.760;-1.482145;-2.957177
5.770;-1.450602;-2.951759
5.780;-1.408649;-2.947221
5.790;-1.354212;-2.943349
5.800;-1.287330;-2.939430
5.810;-1.210228;-2.934613
5.820;-1.126826;-2.928330
5.830;-1.041811;-2.920604
5.840;-0.959584;-2.912079
5.850;-0.883410;-2.903825
5.860;-0.815008;-2.897017
5.870;-0.754628;-2.892610
5.880;-0.701494;-2.891124
5.890;-0.654327;-2.892583
5.900;-0.611762;-2.896586
5.910;-0.572526;-2.902439
5.920;-0.535447;-2.909263
5.930;-0.499391;-2.916020
5.940;-0.463263;-2.921533
5.950;-0.426119;-2.924559
5.960;-0.387362;-2.923989
5.970;-0.346914;-2.919083
5.980;-0.305276;-2.909623
5.990;-0.263444;-2.895933
6.000;-0.222722;-2.878788
6.010;-0.184486;-2.859233
6.020;-0.149900;-2.838340
6.030;-0.119636;-2.816927
6.040;-0.093660;-2.795303
6.050;-0.071177;-2.773159
6.060;-0.050784;-2.749690
6.070;-0.030762;-2.723906
6.080;-0.009448;-2.695045
6.090;0.014441;-2.662881
6.100;0.041607;-2.627796
6.110;0.072124;-2.590570
6.120;0.105551;-2.551977
6.130;0.141136;-2.512421
6.140;0.178024;-2.471821
6.150;0.215396;-2.429829
6.160;0.252487;-2.386249
6.170;0.288526;-2.341455
6.180;0.322692;-2.296540
6.190;0.354152;-2.253113
6.200;0.382190;-2.212813
6.210;0.406340;-2.176753
6.220;0.426451;-2.145163
6.230;0.442606;-2.117394
6.240;0.454949;-2.092249
6.250;0.463496;-2.068494
6.260;0.468035;-2.045297
6.270;0.468175;-2.022433
6.280;0.463508;-2.000205
6.290;0.453779;-1.979169
6.300;0.439009;-1.959800
6.310;0.419552;-1.942283
6.320;0.396101;-1.926513
6.330;0.369666;-1.912296
6.340;0.341510;-1.899572
6.350;0.313021;-1.888498
6.360;0.285505;-1.879357
6.370;0.259969;-1.872392
6.380;0.237007;-1.867741
6.390;0.216844;-1.865490
6.400;0.199510;-1.865771
6.410;0.185030;-1.868773
6.420;0.173521;-1.874639
6.430;0.165179;-1.883302
6.440;0.160176;-1.894375
6.450;0.158538;-1.907147
6.460;0.160057;-1.920698
6.470;0.164257;-1.934059
6.480;0.170417;-1.946366
6.490;0.177633;-1.956995
6.500;0.184908;-1.965673
6.510;0.191250;-1.972553
6.520;0.195791;-1.978156
6.530;0.197917;-1.983169
6.540;0.197383;-1.988144
6.550;0.194334;-1.993293
6.560;0.189180;-1.998523
6.570;0.182350;-2.003677
6.580;0.174043;-2.008825
6.590;0.164095;-2.014394
6.600;0.152023;-2.021069
6.610;0.137203;-2.029553
6.620;0.119092;-2.040329
6.630;0.097401;-2.053520
6.640;0.072211;-2.068883
6.650;0.044030;-2.085856
6.660;0.013823;-2.103606
6.670;-0.017053;-2.121032
6.680;-0.047033;-2.136778
6.690;-0.074661;-2.149349
6.700;-0.098956;-2.157374
6.710;-0.119683;-2.159951
6.720;-0.137469;-2.156914
6.730;-0.153743;-2.148876
6.740;-0.170526;-2.137048
6.750;-0.190089;-2.122877
6.760;-0.214459;-2.107656
6.770;-0.244885;-2.092226
6.780;-0.281412;-2.076857
6.790;-0.322784;-2.061350
6.800;-0.366737;-2.045289
6.810;-0.410565;-2.028342
6.820;-0.451749;-2.010476
6.830;-0.488451;-1.991996
6.840;-0.519751;-1.973418
6.850;-0.545650;-1.955240
6.860;-0.566890;-1.937728
6.870;-0.584667;-1.920795
6.880;-0.600320;-1.904006
6.890;-0.615077;-1.886705
6.900;-0.629885;-1.868252
6.910;-0.645367;-1.848288
6.920;-0.661865;-1.826926
6.930;-0.679548;-1.804766
6.940;-0.698458;-1.782716
6.950;-0.718452;-1.761689
6.960;-0.739028;-1.742367
6.970;-0.759154;-1.725102
6.980;-0.777257;-1.709966
6.990;-0.791466;-1.696831
7.000;-0.800039;-1.685424
7.010;-0.801823;-1.675363
7.020;-0.796516;-1.666222
7.030;-0.784624;-1.657667
7.040;-0.767175;-1.649601
7.050;-0.745355;-1.642237
7.060;-0.720198;-1.636020
7.070;-0.692418;-1.631419
7.080;-0.662356;-1.628673
7.090;-0.630053;-1.627643
7.100;-0.595400;-1.627862
7.110;-0.558362;-1.628764
7.120;-0.519209;-1.629939
7.130;-0.478700;-1.631268
7.140;-0.438161;-1.632877
7.150;-0.399439;-1.634972
7.160;-0.364721;-1.637672
7.170;-0.336254;-1.640951
7.180;-0.315977;-1.644696
7.190;-0.305160;-1.648841
7.200;-0.304131;-1.653468
7.210;-0.312191;-1.658818
7.220;-0.327752;-1.665191
7.230;-0.348658;-1.672817
7.240;-0.372601;-1.681797
7.250;-0.397514;-1.692121
7.260;-0.421861;-1.703758
7.270;-0.444793;-1.716735
7.280;-0.466143;-1.731126
7.290;-0.486258;-1.746962
7.300;-0.505666;-1.764131
7.310;-0.524658;-1.782367
7.320;-0.542921;-1.801369
7.330;-0.559393;-1.820992
7.340;-0.572430;-1.841399
7.350;-0.580197;-1.863085
7.360;-0.581155;-1.886741
7.370;-0.574444;-1.913020
7.380;-0.560074;-1.942288
7.390;-0.538890;-1.974441
7.400;-0.512394;-2.008835
7.410;-0.482489;-2.044338
7.420;-0.451238;-2.079505
7.430;-0.420683;-2.112835
7.440;-0.392751;-2.143066
7.450;-0.369232;-2.169479
7.460;-0.351733;-2.192105
7.470;-0.341543;-2.211755
7.480;-0.339416;-2.229767
7.490;-0.345374;-2.247528
7.500;-0.358620;-2.265961
7.510;-0.377626;-2.285232
7.520;-0.400384;-2.304839
7.530;-0.424759;-2.324023
7.540;-0.448864;-2.342265
7.550;-0.471362;-2.359583
7.560;-0.491569;-2.376484
7.570;-0.509351;-2.393676
7.580;-0.524847;-2.411736
7.590;-0.538179;-2.430859
7.600;-0.549269;-2.450729
7.610;-0.557800;-2.470501
7.620;-0.563254;-2.488888
7.630;-0.564970;-2.504366
7.640;-0.562150;-2.515458
7.650;-0.553875;-2.521035
7.660;-0.539184;-2.520540
7.670;-0.517249;-2.514097
7.680;-0.487600;-2.502505
7.690;-0.450314;-2.487164
7.700;-0.406098;-2.469904
7.710;-0.356241;-2.452724
7.720;-0.302424;-2.437434
7.730;-0.246417;-2.425325
7.740;-0.189744;-2.416971
7.750;-0.133424;-2.412231
7.760;-0.077840;-2.410420
7.770;-0.022777;-2.410591
7.780;0.032399;-2.411836
7.790;0.088434;-2.413526
7.800;0.145861;-2.415406
7.810;0.204750;-2.417504
