Time[s];COPx[cm];COPy[cm]
0.010;0.000610;0.045169
0.020;0.002122;0.035760
0.030;0.004042;0.027059
0.040;0.006605;0.019798
0.050;0.009713;0.014607
0.060;0.012921;0.011849
0.070;0.015566;0.011474
0.080;0.016974;0.013008
0.090;0.016696;0.015679
0.100;0.014693;0.018629
0.110;0.011377;0.021116
0.120;0.007508;0.022654
0.130;0.003980;0.023059
0.140;0.001593;0.022421
0.150;0.000907;0.021035
0.160;0.002202;0.019314
0.170;0.005519;0.017707
0.180;0.010724;0.016600
0.190;0.017543;0.016234
0.200;0.025598;0.016670
0.210;0.034452;0.017799
0.220;0.043652;0.019393
0.230;0.052759;0.021147
0.240;0.061359;0.022738
0.250;0.069087;0.023881
0.260;0.075650;0.024400
0.270;0.080888;0.024266
0.280;0.084821;0.023596
0.290;0.087663;0.022562
0.300;0.089787;0.021239
0.310;0.091620;0.019436
0.320;0.093531;0.016626
0.330;0.095755;0.012067
0.340;0.098376;0.005099
0.350;0.101368;-0.004491
0.360;0.104638;-0.016215
0.370;0.108061;-0.028916
0.380;0.111484;-0.041090
0.390;0.114713;-0.051386
0.400;0.117502;-0.059048
0.410;0.119569;-0.064102
0.420;0.120648;-0.067181
0.430;0.120552;-0.069121
0.440;0.119211;-0.070566
0.450;0.116672;-0.071756
0.460;0.113102;-0.072572
0.470;0.108789;-0.072737
0.480;0.104151;-0.072055
0.490;0.099696;-0.070582
0.500;0.095946;-0.068667
0.510;0.093345;-0.066819
0.520;0.092191;-0.065491
0.530;0.092627;-0.064875
0.540;0.094664;-0.064844
0.550;0.098208;-0.065075
0.560;0.103064;-0.065283
0.570;0.108912;-0.065388
0.580;0.115292;-0.065486
0.590;0.121638;-0.065635
0.600;0.127360;-0.065615
0.610;0.132006;-0.064894
0.620;0.135426;-0.062817
0.630;0.137869;-0.058928
0.640;0.139928;-0.053197
0.650;0.142348;-0.046033
0.660;0.145785;-0.038113
0.670;0.150610;-0.030143
0.680;0.156824;-0.022705
0.690;0.164101;-0.016207
0.700;0.171904;-0.010902
0.710;0.179657;-0.006889
0.720;0.186912;-0.004081
0.730;0.193449;-0.002177
0.740;0.199289;-0.000704
0.750;0.204607;0.000898
0.760;0.209613;0.003153
0.770;0.214440;0.006459
0.780;0.219083;0.010986
0.790;0.223390;0.016591
0.800;0.227107;0.022750
0.810;0.229954;0.028628
0.820;0.231716;0.033295
0.830;0.232314;0.036035
0.840;0.231822;0.036598
0.850;0.230416;0.035261
0.860;0.228295;0.032679
0.870;0.225615;0.029636
0.880;0.222467;0.026857
0.890;0.218880;0.024970
0.900;0.214837;0.024528
0.910;0.210265;0.026000
0.920;0.205003;0.029651
0.930;0.198785;0.035371
0.940;0.191235;0.042576
0.950;0.181937;0.050293
0.960;0.170554;0.057389
0.970;0.156993;0.062872
0.980;0.141506;0.066099
0.990;0.124681;0.066838
1.000;0.107301;0.065197
1.010;0.090141;0.061469
1.020;0.073811;0.056010
1.030;0.058661;0.049178
1.040;0.044745;0.041366
1.050;0.031811;0.033077
1.060;0.019322;0.024966
1.070;0.006572;0.017792
1.080;-0.007105;0.012271
1.090;-0.022079;0.008896
1.100;-0.038248;0.007824
1.110;-0.055031;0.008868
1.120;-0.071527;0.011605
1.130;-0.086768;0.015507
1.140;-0.099959;0.020053
1.150;-0.110661;0.024780
1.160;-0.118889;0.029306
1.170;-0.125138;0.033353
1.180;-0.130289;0.036807
1.190;-0.135389;0.039756
1.200;-0.141346;0.042466
1.210;-0.148643;0.045264
1.220;-0.157194;0.048377
1.230;-0.166441;0.051820
1.240;-0.175628;0.055370
1.250;-0.184123;0.058656
1.260;-0.191613;0.061317
1.270;-0.198120;0.063159
1.280;-0.203852;0.064241
1.290;-0.209027;0.064813
1.300;-0.213743;0.065128
1.310;-0.217951;0.065223
1.320;-0.221518;0.064820
1.330;-0.224332;0.063413
1.340;-0.226398;0.060527
1.350;-0.227866;0.056023
1.360;-0.229010;0.050315
1.370;-0.230161;0.044375
1.380;-0.231642;0.039524
1.390;-0.233708;0.037060
1.400;-0.236503;0.037879
1.410;-0.240042;0.042175
1.420;-0.244202;0.049315
1.430;-0.248739;0.057932
1.440;-0.253309;0.066262
1.450;-0.257505;0.072680
1.460;-0.260907;0.076282
1.470;-0.263135;0.077224
1.480;-0.263935;0.076647
1.490;-0.263269;0.076197
1.500;-0.261392;0.077348
1.510;-0.258885;0.080826
1.520;-0.256587;0.086337
1.530;-0.255433;0.092696
1.540;-0.256219;0.098312
1.550;-0.259363;0.101864
1.560;-0.264748;0.102939
1.570;-0.271714;0.102413
1.580;-0.279211;0.102433
1.590;-0.286067;0.105952
1.600;-0.291281;0.115902
1.610;-0.294238;0.134235
1.620;-0.294805;0.161132
1.630;-0.293303;0.194726
1.640;-0.290404;0.231450
1.650;-0.287017;0.266928
1.660;-0.284164;0.297098
1.670;-0.282836;0.319198
1.680;-0.283822;0.332323
1.690;-0.287549;0.337403
1.700;-0.293983;0.336665
1.710;-0.302645;0.332786
1.720;-0.312734;0.328034
1.730;-0.323307;0.323639
1.740;-0.333445;0.319619
1.750;-0.342360;0.315054
1.760;-0.349435;0.308678
1.770;-0.354234;0.299514
1.780;-0.356542;0.287300
1.790;-0.356446;0.272527
1.800;-0.354395;0.256172
1.810;-0.351148;0.239271
1.820;-0.347576;0.222622
1.830;-0.344398;0.206741
1.840;-0.341993;0.192050
1.850;-0.340397;0.179116
1.860;-0.339473;0.168716
1.870;-0.339143;0.161623
1.880;-0.339538;0.158201
1.890;-0.340986;0.158062
1.900;-0.343860;0.160034
1.910;-0.348383;0.162506
1.920;-0.354475;0.164030
1.930;-0.361720;0.163893
1.940;-0.369455;0.162399
1.950;-0.376934;0.160726
1.960;-0.383520;0.160406
1.970;-0.388839;0.162662
1.980;-0.392851;0.167891
1.990;-0.395842;0.175502
2.000;-0.398339;0.184123
2.010;-0.400956;0.192037
2.020;-0.404168;0.197685
2.030;-0.408095;0.200095
2.040;-0.412381;0.199138
2.050;-0.416278;0.195560
2.060;-0.418901;0.190780
2.070;-0.419580;0.186504
2.080;-0.418119;0.184284
2.090;-0.414886;0.185115
2.100;-0.410704;0.189195
2.110;-0.406633;0.195885
2.120;-0.403720;0.203901
2.130;-0.402769;0.211682
2.140;-0.404172;0.217870
2.150;-0.407831;0.221722
2.160;-0.413176;0.223339
2.170;-0.419290;0.223601
2.180;-0.425113;0.223848
2.190;-0.429681;0.225398
2.200;-0.432334;0.229073
2.210;-0.432823;0.234889
2.220;-0.431308;0.242026
2.230;-0.428261;0.249101
2.240;-0.424326;0.254637
2.250;-0.420167;0.257560
2.260;-0.416334;0.257508
2.270;-0.413181;0.254832
2.280;-0.410837;0.250338
2.290;-0.409235;0.244896
2.300;-0.408198;0.239146
2.310;-0.407537;0.233407
2.320;-0.407128;0.227793
2.330;-0.406922;0.222396
2.340;-0.406896;0.217343
2.350;-0.406984;0.212709
2.360;-0.407049;0.208363
2.370;-0.406896;0.203941
2.380;-0.406341;0.198990
2.390;-0.405247;0.193198
2.400;-0.403525;0.186549
2.410;-0.401091;0.179277
2.420;-0.397826;0.171691
2.430;-0.393594;0.163991
2.440;-0.388325;0.156233
2.450;-0.382133;0.148433
2.460;-0.375389;0.140695
2.470;-0.368697;0.133247
2.480;-0.362748;0.126342
2.490;-0.358127;0.120080
2.500;-0.355177;0.114252
2.510;-0.353986;0.108327
2.520;-0.354438;0.101628
2.530;-0.356276;0.093651
2.540;-0.359106;0.084407
2.550;-0.362411;0.074607
2.560;-0.365612;0.065563
2.570;-0.368198;0.058776
2.580;-0.369865;0.055357
2.590;-0.370598;0.055543
2.600;-0.370666;0.058587
2.610;-0.370545;0.063075
2.620;-0.370776;0.067518
2.630;-0.371824;0.070884
2.640;-0.373944;0.072839
2.650;-0.377110;0.073630
2.660;-0.381030;0.073766
2.670;-0.385241;0.073753
2.680;-0.389256;0.074037
2.690;-0.392711;0.075103
2.700;-0.395446;0.077546
2.710;-0.397512;0.081971
2.720;-0.399139;0.088707
2.730;-0.400682;0.097490
2.740;-0.402539;0.107301
2.750;-0.405025;0.116487
2.760;-0.408231;0.123189
2.770;-0.411939;0.125926
2.780;-0.415637;0.124130
2.790;-0.418641;0.118412
2.800;-0.420277;0.110489
2.810;-0.420071;0.102756
2.820;-0.417895;0.097619
2.830;-0.414043;0.096792
2.840;-0.409216;0.100782
2.850;-0.404415;0.108769
2.860;-0.400717;0.118909
2.870;-0.398988;0.128950
2.880;-0.399575;0.136938
2.890;-0.402138;0.141782
2.900;-0.405699;0.143497
2.910;-0.408907;0.143070
2.920;-0.410413;0.142027
2.930;-0.409194;0.141877
2.940;-0.404725;0.143647
2.950;-0.396977;0.147644
2.960;-0.386284;0.153483
2.970;-0.373202;0.160332
2.980;-0.358404;0.167219
2.990;-0.342629;0.173304
3.000;-0.326626;0.178028
3.010;-0.311072;0.181122
3.020;-0.296482;0.182504
3.030;-0.283142;0.182143
3.040;-0.271111;0.179981
3.050;-0.260285;0.175947
3.060;-0.250495;0.170055
3.070;-0.241600;0.162527
3.080;-0.233528;0.153852
3.090;-0.226218;0.144710
3.100;-0.219535;0.135761
3.110;-0.213211;0.127407
3.120;-0.206892;0.119676
3.130;-0.200271;0.112295
3.140;-0.193210;0.104922
3.150;-0.185778;0.097388
3.160;-0.178186;0.089796
3.170;-0.170661;0.082465
3.180;-0.163330;0.075745
3.190;-0.156178;0.069842
3.200;-0.149087;0.064739
3.210;-0.141942;0.060235
3.220;-0.134738;0.056067
3.230;-0.127630;0.052050
3.240;-0.120891;0.048153
3.250;-0.114825;0.044494
3.260;-0.109657;0.041245
3.270;-0.105452;0.038510
3.280;-0.102068;0.036210
3.290;-0.099193;0.034031
3.300;-0.096445;0.031493
3.310;-0.093514;0.028192
3.320;-0.090281;0.024102
3.330;-0.086869;0.019777
3.340;-0.083574;0.016262
3.350;-0.080711;0.014700
3.360;-0.078433;0.015806
3.370;-0.076596;0.019485
3.380;-0.074755;0.024811
3.390;-0.072287;0.030348
3.400;-0.068608;0.034647
3.410;-0.063387;0.036670
3.420;-0.056660;0.036026
3.430;-0.048801;0.033011
3.440;-0.040362;0.028505
3.450;-0.031874;0.023776
3.460;-0.023686;0.020182
3.470;-0.015906;0.018829
3.480;-0.008431;0.020241
3.490;-0.001017;0.024209
3.500;0.006641;0.029861
3.510;0.014857;0.035963
3.520;0.023918;0.041300
3.530;0.034032;0.044994
3.540;0.045252;0.046648
3.550;0.057400;0.046306
3.560;0.070078;0.044306
3.570;0.082789;0.041127
3.580;0.095121;0.037289
3.590;0.106868;0.033297
3.600;0.118000;0.029597
3.610;0.128491;0.026534
3.620;0.138167;0.024302
3.630;0.146673;0.022900
3.640;0.153590;0.022111
3.650;0.158617;0.021522
3.660;0.161729;0.020614
3.670;0.163245;0.018880
3.680;0.163787;0.015943
3.690;0.164122;0.011648
3.700;0.164917;0.006131
3.710;0.166525;-0.000120
3.720;0.168880;-0.006272
3.730;0.171564;-0.011263
3.740;0.174000;-0.014059
3.750;0.175678;-0.013990
3.760;0.176314;-0.011022
3.770;0.175868;-0.005815
3.780;0.174443;0.000490
3.790;0.172142;0.006661
3.800;0.168991;0.011749
3.810;0.164953;0.015288
3.820;0.160009;0.017302
3.830;0.154235;0.018196
3.840;0.147788;0.018596
3.850;0.140830;0.019161
3.860;0.133428;0.020352
3.870;0.125503;0.022241
3.880;0.116873;0.024464
3.890;0.107371;0.026379
3.900;0.096983;0.027358
3.910;0.085942;0.027087
3.920;0.074743;0.025702
3.930;0.064055;0.023701
3.940;0.054579;0.021698
3.950;0.046893;0.020150
3.960;0.041327;0.019226
3.970;0.037921;0.018855
3.980;0.036444;0.018901
3.990;0.036456;0.019334
4.000;0.037403;0.020272
4.010;0.038719;0.021865
4.020;0.039922;0.024096
4.030;0.040675;0.026626
4.040;0.040782;0.028813
4.050;0.040130;0.029927
4.060;0.038615;0.029440
4.070;0.036111;0.027265
4.080;0.032527;0.023796
4.090;0.027920;0.019756
4.100;0.022624;0.015930
4.110;0.017278;0.012893
4.120;0.012712;0.010842
4.130;0.009685;0.009556
4.140;0.008590;0.008476
4.150;0.009274;0.006870
4.160;0.011048;0.004046
4.170;0.012907;-0.000444
4.180;0.013890;-0.006640
4.190;0.013439;-0.014108
4.200;0.011601;-0.022041
4.210;0.009007;-0.029523
4.220;0.006605;-0.035849
4.230;0.005302;-0.040763
4.240;0.005614;-0.044497
4.250;0.007466;-0.047633
4.260;0.010215;-0.050854
4.270;0.012889;-0.054659
4.280;0.014591;-0.059162
4.290;0.014868;-0.064046
4.300;0.013894;-0.068692
4.310;0.012374;-0.072425
4.320;0.011231;-0.074768
4.330;0.011268;-0.075593
4.340;0.012925;-0.075144
4.350;0.016214;-0.073935
4.360;0.020775;-0.072550
4.370;0.025992;-0.071399
4.380;0.031131;-0.070524
4.390;0.035488;-0.069555
4.400;0.038531;-0.067873
4.410;0.039999;-0.064917
4.420;0.039935;-0.060502
4.430;0.038638;-0.054961
4.440;0.036532;-0.049039
4.450;0.034019;-0.043592
4.460;0.031360;-0.039257
4.470;0.028652;-0.036273
4.480;0.025909;-0.034508
4.490;0.023190;-0.033641
4.500;0.020715;-0.033343
4.510;0.018875;-0.033387
4.520;0.018124;-0.033670
4.530;0.018787;-0.034217
4.540;0.020898;-0.035173
4.550;0.024131;-0.036770
4.560;0.027867;-0.039242
4.570;0.031325;-0.042695
4.580;0.033724;-0.046988
4.590;0.034431;-0.051695
4.600;0.033086;-0.056185
4.610;0.029668;-0.059807
4.620;0.024486;-0.062109
4.630;0.018062;-0.062994
4.640;0.010960;-0.062762
4.650;0.003637;-0.062017
4.660;-0.003632;-0.061464
4.670;-0.010705;-0.061675
4.680;-0.017482;-0.062911
4.690;-0.023827;-0.065073
4.700;-0.029565;-0.067794
4.710;-0.034532;-0.070627
4.720;-0.038620;-0.073255
4.730;-0.041778;-0.075609
4.740;-0.043944;-0.077840
4.750;-0.044989;-0.080191
4.760;-0.044713;-0.082842
4.770;-0.042921;-0.085833
4.780;-0.039535;-0.089087
4.790;-0.034681;-0.092491
4.800;-0.028695;-0.095962
4.810;-0.022082;-0.099460
4.820;-0.015436;-0.102983
4.830;-0.009374;-0.106575
4.840;-0.004455;-0.110333
4.850;-0.001079;-0.114408
4.860;0.000590;-0.118963
4.870;0.000659;-0.124083
4.880;-0.000548;-0.129668
4.890;-0.002581;-0.135396
4.900;-0.004927;-0.140802
4.910;-0.007052;-0.145455
4.920;-0.008445;-0.149157
4.930;-0.008714;-0.152025
4.940;-0.007716;-0.154458
4.950;-0.005640;-0.156987
4.960;-0.002996;-0.160114
4.970;-0.000492;-0.164173
4.980;0.001159;-0.169233
4.990;0.001470;-0.175085
5.000;0.000391;-0.181329
5.010;-0.001547;-0.187564
5.020;-0.003225;-0.193594
5.030;-0.003121;-0.199554
5.040;0.000314;-0.205840
5.050;0.008209;-0.212878
5.060;0.020918;-0.220834
5.070;0.037898;-0.229446
5.080;0.057856;-0.238068
5.090;0.079074;-0.245906
5.100;0.099776;-0.252336
5.110;0.118422;-0.257128
5.120;0.133884;-0.260479
5.130;0.145499;-0.262845
5.140;0.153065;-0.264688
5.150;0.156795;-0.266290
5.160;0.157251;-0.267685
5.170;0.155220;-0.268705
5.180;0.151558;-0.269055
5.190;0.147000;-0.268392
5.200;0.141998;-0.266402
5.210;0.136662;-0.262898
5.220;0.130841;-0.257932
5.230;0.124310;-0.251902
5.240;0.116978;-0.245602
5.250;0.108994;-0.240152
5.260;0.100689;-0.236761
5.270;0.092420;-0.236345
5.280;0.084412;-0.239126
5.290;0.076671;-0.244406
5.300;0.068989;-0.250679
5.310;0.061015;-0.256113
5.320;0.052379;-0.259217
5.330;0.042826;-0.259369
5.340;0.032325;-0.256934
5.350;0.021079;-0.252921
5.360;0.009440;-0.248405
5.370;-0.002243;-0.244008
5.380;-0.013770;-0.239681
5.390;-0.025143;-0.234805
5.400;-0.036534;-0.228534
5.410;-0.048202;-0.220223
5.420;-0.060389;-0.209789
5.430;-0.073279;-0.197853
5.440;-0.086990;-0.185574
5.450;-0.101585;-0.174210
5.460;-0.117037;-0.164597
5.470;-0.133158;-0.156809
5.480;-0.149540;-0.150187
5.490;-0.165587;-0.143758
5.500;-0.180694;-0.136827
5.510;-0.194494;-0.129445
5.520;-0.207049;-0.122455
5.530;-0.218871;-0.117100
5.540;-0.230755;-0.114372
5.550;-0.243507;-0.114474
5.560;-0.257682;-0.116683
5.570;-0.273430;-0.119670
5.580;-0.290460;-0.122108
5.590;-0.308102;-0.123235
5.600;-0.325452;-0.123118
5.610;-0.341572;-0.122538
5.620;-0.355707;-0.122624
5.630;-0.367449;-0.124421
5.640;-0.376823;-0.128548
5.650;-0.384257;-0.135000
5.660;-0.390469;-0.143097
5.670;-0.396286;-0.151599
5.680;-0.402434;-0.159023
5.690;-0.409325;-0.164112
5.700;-0.416907;-0.166276
5.710;-0.424630;-0.165796
5.720;-0.431573;-0.163663
5.730;-0.436699;-0.161148
5.740;-0.439160;-0.159299
5.750;-0.438519;-0.158574
5.760;-0.434815;-0.158722
5.770;-0.428471;-0.158915
5.780;-0.420134;-0.158087
5.790;-0.410578;-0.155365
5.800;-0.400668;-0.150439
5.810;-0.391345;-0.143719
5.820;-0.383487;-0.136187
5.830;-0.377671;-0.129047
5.840;-0.373937;-0.123345
5.850;-0.371727;-0.119710
5.860;-0.370082;-0.118302
5.870;-0.368000;-0.118857
5.880;-0.364766;-0.120764
5.890;-0.360102;-0.123100
5.900;-0.354088;-0.124707
5.910;-0.346976;-0.124380
5.920;-0.339015;-0.121208
5.930;-0.330429;-0.114946
5.940;-0.321515;-0.106232
5.950;-0.312762;-0.096499
5.960;-0.304868;-0.087548
5.970;-0.298614;-0.080932
5.980;-0.294637;-0.077417
5.990;-0.293243;-0.076721
6.000;-0.294319;-0.077662
6.010;-0.297395;-0.078637
6.020;-0.301810;-0.078239
6.030;-0.306913;-0.075751
6.040;-0.312212;-0.071364
6.050;-0.317423;-0.066034
6.060;-0.322414;-0.061072
6.070;-0.327093;-0.057612
6.080;-0.331316;-0.056177
6.090;-0.334866;-0.056490
6.100;-0.337502;-0.057620
6.110;-0.339052;-0.058380
6.120;-0.339507;-0.057824
6.130;-0.339092;-0.055624
6.140;-0.338273;-0.052146
6.150;-0.337682;-0.048239
6.160;-0.337950;-0.044863
6.170;-0.339506;-0.042760
6.180;-0.342420;-0.042291
6.190;-0.346377;-0.043463
6.200;-0.350786;-0.046062
6.210;-0.354981;-0.049781
6.220;-0.358423;-0.054289
6.230;-0.360825;-0.059260
6.240;-0.362205;-0.064372
6.250;-0.362871;-0.069322
6.260;-0.363358;-0.073814
6.270;-0.364278;-0.077545
6.280;-0.366110;-0.080219
6.290;-0.368993;-0.081587
6.300;-0.372639;-0.081533
6.310;-0.376436;-0.080128
6.320;-0.379695;-0.077628
6.330;-0.381931;-0.074411
6.340;-0.383040;-0.070887
6.350;-0.383311;-0.067417
6.360;-0.383298;-0.064254
6.370;-0.383629;-0.061498
6.380;-0.384837;-0.059109
6.390;-0.387260;-0.056994
6.400;-0.390987;-0.055161
6.410;-0.395843;-0.053829
6.420;-0.401378;-0.053409
6.430;-0.406905;-0.054326
6.440;-0.411590;-0.056766
6.450;-0.414603;-0.060515
6.460;-0.415323;-0.064975
6.470;-0.413551;-0.069372
6.480;-0.409648;-0.073051
6.490;-0.404534;-0.075694
6.500;-0.399486;-0.077378
6.510;-0.395799;-0.078469
6.520;-0.394424;-0.079458
6.530;-0.395735;-0.080814
6.540;-0.399512;-0.082895
6.550;-0.405110;-0.085884
6.560;-0.411716;-0.089759
6.570;-0.418564;-0.094277
6.580;-0.425073;-0.098995
6.590;-0.430875;-0.103353
6.600;-0.435792;-0.106821
6.610;-0.439785;-0.109062
6.620;-0.442913;-0.110058
6.630;-0.445297;-0.110105
6.640;-0.447070;-0.109690
6.650;-0.448324;-0.109300
6.660;-0.449071;-0.109264
6.670;-0.449246;-0.109707
6.680;-0.448778;-0.110599
6.690;-0.447676;-0.111848
6.700;-0.446092;-0.113340
6.710;-0.444323;-0.114944
6.720;-0.442716;-0.116519
6.730;-0.441540;-0.117966
6.740;-0.440866;-0.119287
6.750;-0.440531;-0.120609
6.760;-0.440189;-0.122128
6.770;-0.439405;-0.124010
6.780;-0.437749;-0.126303
6.790;-0.434882;-0.128922
6.800;-0.430627;-0.131709
6.810;-0.425010;-0.134526
6.820;-0.418253;-0.137332
6.830;-0.410687;-0.140193
6.840;-0.402644;-0.143242
6.850;-0.394348;-0.146587
6.860;-0.385862;-0.150218
6.870;-0.377080;-0.153947
6.880;-0.367783;-0.157404
6.890;-0.357749;-0.160104
6.900;-0.346908;-0.161580
6.910;-0.335456;-0.161563
6.920;-0.323867;-0.160164
6.930;-0.312750;-0.157948
6.940;-0.302611;-0.155835
6.950;-0.293606;-0.154795
6.960;-0.285410;-0.155456
6.970;-0.277263;-0.157826
6.980;-0.268180;-0.161283
6.990;-0.257272;-0.164849
7.000;-0.244030;-0.167567
7.010;-0.228515;-0.168825
7.020;-0.211381;-0.168488
7.030;-0.193707;-0.166876
7.040;-0.176706;-0.164604
7.050;-0.161380;-0.162350
7.060;-0.148277;-0.160626
7.070;-0.137426;-0.159619
7.080;-0.128472;-0.159172
7.090;-0.120917;-0.158925
7.100;-0.114360;-0.158549
7.110;-0.108649;-0.157949
7.120;-0.103900;-0.157298
7.130;-0.100419;-0.156901
7.140;-0.098558;-0.156976
7.150;-0.098563;-0.157489
7.160;-0.100464;-0.158147
7.170;-0.104016;-0.158500
7.180;-0.108740;-0.158108
7.190;-0.114023;-0.156681
7.200;-0.119269;-0.154172
7.210;-0.124050;-0.150793
7.220;-0.128180;-0.146935
7.230;-0.131704;-0.143014
7.240;-0.134794;-0.139302
7.250;-0.137621;-0.135835
7.260;-0.140252;-0.132446
7.270;-0.142641;-0.128937
7.280;-0.144695;-0.125307
7.290;-0.146391;-0.121901
7.300;-0.147877;-0.119406
7.310;-0.149483;-0.118632
7.320;-0.151670;-0.120169
7.330;-0.154906;-0.124027
7.340;-0.159548;-0.129469
7.350;-0.165745;-0.135146
7.360;-0.173402;-0.139515
7.370;-0.182205;-0.141368
7.380;-0.191690;-0.140228
7.390;-0.201367;-0.136443
7.400;-0.210849;-0.130969
7.410;-0.219965;-0.124996
7.420;-0.228771;-0.119579
7.430;-0.237446;-0.115394
7.440;-0.246089;-0.112655
7.450;-0.254527;-0.111192
7.460;-0.262201;-0.110647
7.470;-0.268224;-0.110697
7.480;-0.271596;-0.111225
7.490;-0.271508;-0.112324
7.500;-0.267622;-0.114184
7.510;-0.260242;-0.116905
7.520;-0.250302;-0.120378
7.530;-0.239180;-0.124281
7.540;-0.228370;-0.128190
7.550;-0.219113;-0.131716
7.560;-0.212122;-0.134560
7.570;-0.207486;-0.136484
7.580;-0.204786;-0.137233
7.590;-0.203320;-0.136549
7.600;-0.202338;-0.134277
7.610;-0.201205;-0.130534
7.620;-0.199468;-0.125788
7.630;-0.196876;-0.120777
7.640;-0.193352;-0.116261
7.650;-0.188990;-0.112742
7.660;-0.184056;-0.110296
7.670;-0.178969;-0.108637
7.680;-0.174214;-0.107331
7.690;-0.170162;-0.106023
7.700;-0.166880;-0.104532
7.710;-0.164021;-0.102799
7.720;-0.160901;-0.100805
7.730;-0.156740;-0.098545
7.740;-0.150948;-0.096094
7.750;-0.143336;-0.093687
7.760;-0.134143;-0.091710
7.770;-0.123937;-0.090569
7.780;-0.113448;-0.090475
7.790;-0.103421;-0.091287
7.800;-0.094504;-0.092513
7.810;-0.087177;-0.093522
7.820;-0.081676;-0.093822
7.830;-0.077946;-0.093256
7.840;-0.075632;-0.091990
7.850;-0.074147;-0.090316
7.860;-0.072794;-0.088430
7.870;-0.070922;-0.086309
7.880;-0.068072;-0.083738
7.890;-0.064073;-0.080460
7.900;-0.059079;-0.076330
7.910;-0.053519;-0.071392
7.920;-0.047979;-0.065832
