Time[s];COPx[cm];COPy[cm]
0.010;1.659827;-0.325717
0.020;1.656678;-0.288860
0.030;1.654409;-0.251811
0.040;1.653686;-0.214749
0.050;1.654982;-0.178330
0.060;1.658497;-0.143553
0.070;1.664149;-0.111385
0.080;1.671705;-0.082341
0.090;1.680982;-0.056210
0.100;1.691985;-0.032086
0.110;1.704808;-0.008717
0.120;1.719299;0.014990
0.130;1.734586;0.039545
0.140;1.748739;0.064729
0.150;1.758802;0.089777
0.160;1.761290;0.113757
0.170;1.753024;0.135957
0.180;1.731965;0.156103
0.190;1.697674;0.174339
0.200;1.651220;0.190996
0.210;1.594593;0.206276
0.220;1.529920;0.220010
0.230;1.458859;0.231638
0.240;1.382412;0.240437
0.250;1.301232;0.245883
0.260;1.216241;0.247977
0.270;1.129209;0.247386
0.280;1.042959;0.245349
0.290;0.961024;0.243371
0.300;0.886820;0.242811
0.310;0.822647;0.244525
0.320;0.768942;0.248697
0.330;0.724095;0.254942
0.340;0.684941;0.262636
0.350;0.647728;0.271320
0.360;0.609202;0.281004
0.370;0.567382;0.292228
0.380;0.521786;0.305849
0.390;0.473092;0.322657
0.400;0.422491;0.342963
0.410;0.371090;0.366318
0.420;0.319648;0.391449
0.430;0.268723;0.416466
0.440;0.219074;0.439287
0.450;0.172025;0.458169
0.460;0.129498;0.472198
0.470;0.093628;0.481543
0.480;0.066097;0.487355
0.490;0.047484;0.491298
0.500;0.036999;0.494884
0.510;0.032770;0.498895
0.520;0.032592;0.503159
0.530;0.034862;0.506776
0.540;0.039274;0.508674
0.550;0.046986;0.508225
0.560;0.060164;0.505635
0.570;0.081082;0.501900
0.580;0.111135;0.498341
0.590;0.150155;0.495924
0.600;0.196318;0.494677
0.610;0.246698;0.493496
0.620;0.298311;0.490459
0.630;0.349237;0.483549
0.640;0.399393;0.471509
0.650;0.450618;0.454501
0.660;0.506042;0.434306
0.670;0.568956;0.413994
0.680;0.641611;0.397155
0.690;0.724354;0.386969
0.700;0.815439;0.385410
0.710;0.911529;0.392840
0.720;1.008663;0.408064
0.730;1.103300;0.428772
0.740;1.193072;0.452152
0.750;1.277054;0.475513
0.760;1.355552;0.496780
0.770;1.429615;0.514805
0.780;1.500520;0.529466
0.790;1.569412;0.541513
0.800;1.637139;0.552181
0.810;1.704202;0.562666
0.820;1.770722;0.573637
0.830;1.836362;0.584967
0.840;1.900258;0.595774
0.850;1.961027;0.604720
0.860;2.016924;0.610389
0.870;2.066134;0.611585
0.880;2.107139;0.607476
0.890;2.139036;0.597625
0.900;2.161740;0.581985
0.910;2.176002;0.560856
0.920;2.183254;0.534748
0.930;2.185328;0.504189
0.940;2.184124;0.469529
0.950;2.181298;0.430886
0.960;2.178020;0.388227
0.970;2.174829;0.341549
0.980;2.171558;0.291029
0.990;2.167319;0.237065
1.000;2.160512;0.180195
1.010;2.148901;0.120970
1.020;2.129819;0.059844
1.030;2.100558;-0.002848
1.040;2.058953;-0.066809
1.050;2.004012;-0.131618
1.060;1.936396;-0.196521
1.070;1.858537;-0.260255
1.080;1.774294;-0.320985
1.090;1.688214;-0.376443
1.100;1.604602;-0.424290
1.110;1.526700;-0.462607
1.120;1.456249;-0.490332
1.130;1.393547;-0.507449
1.140;1.337936;-0.514866
1.150;1.288474;-0.514025
1.160;1.244484;-0.506468
1.170;1.205755;-0.493513
1.180;1.172350;-0.476174
1.190;1.144185;-0.455304
1.200;1.120617;-0.431808
1.210;1.100276;-0.406759
1.220;1.081244;-0.381327
1.230;1.061537;-0.356544
1.240;1.039732;-0.333046
1.250;1.015466;-0.310901
1.260;0.989591;-0.289605
1.270;0.963859;-0.268255
1.280;0.940262;-0.245848
1.290;0.920296;-0.221630
1.300;0.904455;-0.195406
1.310;0.892140;-0.167734
1.320;0.881930;-0.139918
1.330;0.872027;-0.113757
1.340;0.860659;-0.091083
1.350;0.846348;-0.073247
1.360;0.828081;-0.060742
1.370;0.805442;-0.053076
1.380;0.778737;-0.048920
1.390;0.749000;-0.046464
1.400;0.717779;-0.043861
1.410;0.686682;-0.039627
1.420;0.656887;-0.032894
1.430;0.628848;-0.023460
1.440;0.602370;-0.011660
1.450;0.577031;0.001862
1.460;0.552754;0.016354
1.470;0.530273;0.031086
1.480;0.511234;0.045382
1.490;0.497814;0.058615
1.500;0.491974;0.070230
1.510;0.494643;0.079795
1.520;0.505198;0.087038
1.530;0.521480;0.091833
1.540;0.540329;0.094116
1.550;0.558474;0.093827
1.560;0.573415;0.090888
1.570;0.584022;0.085253
1.580;0.590635;0.076986
1.590;0.594693;0.066305
1.600;0.598046;0.053598
1.610;0.602223;0.039398
1.620;0.607920;0.024322
1.630;0.614927;0.009009
1.640;0.622529;-0.005969
1.650;0.630221;-0.020210
1.660;0.638390;-0.033576
1.670;0.648571;-0.046224
1.680;0.663075;-0.058543
1.690;0.684101;-0.071021
1.700;0.712710;-0.084098
1.710;0.748163;-0.098063
1.720;0.787915;-0.112985
1.730;0.828278;-0.128695
1.740;0.865472;-0.144833
1.750;0.896680;-0.160976
1.760;0.920731;-0.176818
1.770;0.938191;-0.192305
1.780;0.950866;-0.207629
1.790;0.960949;-0.223076
1.800;0.970167;-0.238800
1.810;0.979205;-0.254606
1.820;0.987551;-0.269830
1.830;0.993731;-0.283352
1.840;0.995855;-0.293748
1.850;0.992309;-0.299537
1.860;0.982389;-0.299433
1.870;0.966701;-0.292555
1.880;0.947191;-0.278509
1.890;0.926781;-0.257383
1.900;0.908725;-0.229681
1.910;0.895836;-0.196250
1.920;0.889831;-0.158205
1.930;0.890956;-0.116853
1.940;0.898015;-0.073582
1.950;0.908770;-0.029737
1.960;0.920577;0.013530
1.970;0.931032;0.055358
1.980;0.938403;0.095214
1.990;0.941712;0.132869
2.000;0.940483;0.168349
2.010;0.934268;0.201906
2.020;0.922161;0.234019
2.030;0.902472;0.265402
2.040;0.872740;0.296981
2.050;0.830106;0.329780
2.060;0.772027;0.364736
2.070;0.697188;0.402466
2.080;0.606412;0.443043
2.090;0.503289;0.485853
2.100;0.394219;0.529560
2.110;0.287683;0.572216
2.120;0.192782;0.611546
2.130;0.117414;0.645422
2.140;0.066660;0.672410
2.150;0.041898;0.692195
2.160;0.040919;0.705664
2.170;0.058916;0.714606
2.180;0.089905;0.721137
2.190;0.128070;0.727107
2.200;0.168616;0.733683
2.210;0.208010;0.741238
2.220;0.243748;0.749530
2.230;0.273969;0.758064
2.240;0.297205;0.766454
2.250;0.312441;0.774620
2.260;0.319431;0.782735
2.270;0.319067;0.791010
2.280;0.313541;0.799433
2.290;0.306060;0.807636
2.300;0.300095;0.814916
2.310;0.298395;0.820404
2.320;0.302120;0.823293
2.330;0.310479;0.823072
2.340;0.321023;0.819682
2.350;0.330514;0.813556
2.360;0.336077;0.805498
2.370;0.336236;0.796420
2.380;0.331479;0.787012
2.390;0.324105;0.777494
2.400;0.317419;0.767542
2.410;0.314540;0.756392
2.420;0.317327;0.743031
2.430;0.325822;0.726378
2.440;0.338391;0.705433
2.450;0.352420;0.679446
2.460;0.365216;0.648094
2.470;0.374714;0.611634
2.480;0.379743;0.570902
2.490;0.379843;0.527148
2.500;0.374837;0.481736
2.510;0.364450;0.435815
2.520;0.348231;0.390091
2.530;0.325865;0.344784
2.540;0.297761;0.299743
2.550;0.265633;0.254673
2.560;0.232729;0.209353
2.570;0.203510;0.163814
2.580;0.182792;0.118464
2.590;0.174618;0.074139
2.600;0.181258;0.032044
2.610;0.202688;-0.006410
2.620;0.236695;-0.039863
2.630;0.279570;-0.067290
2.640;0.327123;-0.088259
2.650;0.375665;-0.103081
2.660;0.422642;-0.112764
2.670;0.466789;-0.118757
2.680;0.507851;-0.122591
2.690;0.546031;-0.125595
2.700;0.581411;-0.128789
2.710;0.613560;-0.132960
2.720;0.641470;-0.138781
2.730;0.663845;-0.146866
2.740;0.679576;-0.157711
2.750;0.688152;-0.171564
2.760;0.689819;-0.188320
2.770;0.685427;-0.207490
2.780;0.676075;-0.228239
2.790;0.662784;-0.249500
2.800;0.646366;-0.270140
2.810;0.627570;-0.289179
2.820;0.607381;-0.305975
2.830;0.587282;-0.320296
2.840;0.569268;-0.332221
2.850;0.555514;-0.341927
2.860;0.547771;-0.349489
2.870;0.546690;-0.354818
2.880;0.551372;-0.357741
2.890;0.559386;-0.358177
2.900;0.567352;-0.356320
2.910;0.571893;-0.352740
2.920;0.570603;-0.348370
2.930;0.562633;-0.344379
2.940;0.548682;-0.341942
2.950;0.530441;-0.341971
2.960;0.509778;-0.344896
2.970;0.488023;-0.350569
2.980;0.465640;-0.358321
2.990;0.442408;-0.367160
3.000;0.418015;-0.376036
3.010;0.392795;-0.384078
3.020;0.368283;-0.390730
3.030;0.347258;-0.395785
3.040;0.333200;-0.399310
3.050;0.329302;-0.401518
3.060;0.337458;-0.402611
3.070;0.357652;-0.402656
3.080;0.388011;-0.401552
3.090;0.425472;-0.399089
3.100;0.466764;-0.395076
3.110;0.509297;-0.389490
3.120;0.551578;-0.382577
3.130;0.593037;-0.374870
3.140;0.633390;-0.367118
3.150;0.671917;-0.360157
3.160;0.707033;-0.354738
3.170;0.736403;-0.351350
3.180;0.757575;-0.350095
3.190;0.768873;-0.350663
3.200;0.770172;-0.352428
3.210;0.763206;-0.354640
3.220;0.751257;-0.356639
3.230;0.738329;-0.358014
3.240;0.728080;-0.358621
3.250;0.722920;-0.358445
3.260;0.723573;-0.357338
3.270;0.729259;-0.354786
3.280;0.738380;-0.349861
3.290;0.749433;-0.341469
3.300;0.761743;-0.328838
3.310;0.775724;-0.312009
3.320;0.792563;-0.292040
3.330;0.813446;-0.270788
3.340;0.838701;-0.250314
3.350;0.867217;-0.232193
3.360;0.896450;-0.217049
3.370;0.923020;-0.204506
3.380;0.943719;-0.193528
3.390;0.956513;-0.182934
3.400;0.961145;-0.171815
3.410;0.959076;-0.159714
3.420;0.952770;-0.146569
3.430;0.944637;-0.132540
3.440;0.936066;-0.117858
3.450;0.926964;-0.102789
3.460;0.915940;-0.087691
3.470;0.901021;-0.073085
3.480;0.880523;-0.059635
3.490;0.853716;-0.048013
3.500;0.820998;-0.038673
3.510;0.783551;-0.031637
3.520;0.742696;-0.026375
3.530;0.699261;-0.021867
3.540;0.653235;-0.016816
3.550;0.603835;-0.009936
3.560;0.549925;-0.000190
3.570;0.490657;0.013060
3.580;0.426126;0.029976
3.590;0.357861;0.050196
3.600;0.288950;0.072797
3.610;0.223733;0.096364
3.620;0.167046;0.119243
3.630;0.123183;0.139945
3.640;0.094840;0.157573
3.650;0.082408;0.172045
3.660;0.083860;0.184025
3.670;0.095302;0.194590
3.680;0.111985;0.204752
3.690;0.129473;0.215025
3.700;0.144612;0.225219
3.710;0.156068;0.234546
3.720;0.164346;0.241988
3.730;0.171360;0.246753
3.740;0.179706;0.248653
3.750;0.191878;0.248253
3.760;0.209624;0.246758
3.770;0.233620;0.245657
3.780;0.263513;0.246257
3.790;0.298323;0.249323
3.800;0.337018;0.254962
3.810;0.379011;0.262729
3.820;0.424350;0.271827
3.830;0.473480;0.281295
3.840;0.526685;0.290130
3.850;0.583423;0.297404
3.860;0.641885;0.302411
3.870;0.699020;0.304809
3.880;0.751126;0.304686
3.890;0.794868;0.302473
3.900;0.828371;0.298733
3.910;0.851915;0.293906
3.920;0.867905;0.288117
3.930;0.880065;0.281113
3.940;0.892160;0.272348
3.950;0.906747;0.261172
3.960;0.924419;0.247064
3.970;0.943797;0.229828
3.980;0.962197;0.209668
3.990;0.976661;0.187119
4.000;0.984916;0.162890
4.010;0.985879;0.137680
4.020;0.979560;0.112033
4.030;0.966504;0.086241
4.040;0.947102;0.060312
4.050;0.921142;0.034027
4.060;0.887857;0.007103
4.070;0.846475;-0.020530
4.080;0.797090;-0.048413
4.090;0.741485;-0.075360
4.100;0.683535;-0.099507
4.110;0.628869;-0.118671
4.120;0.583730;-0.130924
4.130;0.553354;-0.135178
4.140;0.540444;-0.131518
4.150;0.544378;-0.121135
4.160;0.561456;-0.105888
4.170;0.586077;-0.087699
4.180;0.612361;-0.068025
4.190;0.635660;-0.047611
4.200;0.653461;-0.026557
4.210;0.665516;-0.004629
4.220;0.673245;0.018364
4.230;0.678757;0.042318
4.240;0.683840;0.066812
4.250;0.689269;0.091303
4.260;0.694564;0.115408
4.270;0.698180;0.139091
4.280;0.697958;0.162681
4.290;0.691651;0.186697
4.300;0.677382;0.211612
4.310;0.653969;0.237686
4.320;0.621103;0.264960
4.330;0.579408;0.293386
4.340;0.530372;0.322988
4.350;0.476149;0.353941
4.360;0.419253;0.386511
4.370;0.362220;0.420889
4.380;0.307342;0.456993
4.390;0.256559;0.494335
4.400;0.211529;0.532002
4.410;0.173788;0.568771
4.420;0.144844;0.603337
4.430;0.126046;0.634607
4.440;0.118229;0.661950
4.450;0.121285;0.685345
4.460;0.133882;0.705354
4.470;0.153500;0.722934
4.480;0.176824;0.739135
4.490;0.200411;0.754779
4.500;0.221423;0.770215
4.510;0.238173;0.785247
4.520;0.250274;0.799277
4.530;0.258351;0.811592
4.540;0.263461;0.821681
4.550;0.266479;0.829424
4.560;0.267696;0.835053
4.570;0.266775;0.838911
4.580;0.263054;0.841135
4.590;0.256050;0.841396
4.600;0.245914;0.838831
4.610;0.233671;0.832187
4.620;0.221114;0.820128
4.630;0.210381;0.801609
4.640;0.203310;0.776202
4.650;0.200804;0.744288
4.660;0.202458;0.707065
4.670;0.206607;0.666357
4.680;0.210791;0.624274
4.690;0.212452;0.582806
4.700;0.209593;0.543488
4.710;0.201203;0.507245
4.720;0.187350;0.474440
4.730;0.169011;0.445061
4.740;0.147757;0.418920
4.750;0.125440;0.395819
4.760;0.103963;0.375632
4.770;0.085167;0.358338
4.780;0.070829;0.344013
4.790;0.062687;0.332807
4.800;0.062414;0.324906
4.810;0.071442;0.320470
4.820;0.090598;0.319535
4.830;0.119653;0.321904
4.840;0.156915;0.327050
4.850;0.199109;0.334133
4.860;0.241667;0.342121
4.870;0.279447;0.350018
4.880;0.307714;0.357103
4.890;0.323106;0.363099
4.900;0.324344;0.368247
4.910;0.312516;0.373236
4.920;0.290915;0.379014
4.930;0.264433;0.386522
4.940;0.238597;0.396406
4.950;0.218395;0.408824
4.960;0.207157;0.423406
4.970;0.205795;0.439401
4.980;0.212688;0.455986
4.990;0.224291;0.472620
5.000;0.236341;0.489311
5.010;0.245254;0.506670
5.020;0.249220;0.525708
5.030;0.248608;0.547417
5.040;0.245529;0.572274
5.050;0.242773;0.599876
5.060;0.242536;0.628864
5.070;0.245442;0.657187
5.080;0.250188;0.682624
5.090;0.253889;0.703343
5.100;0.252982;0.718322
5.110;0.244377;0.727468
5.120;0.226486;0.731414
5.130;0.199832;0.731091
5.140;0.167055;0.727269
5.150;0.132330;0.720250
5.160;0.100380;0.709860
5.170;0.075338;0.695709
5.180;0.059771;0.677600
5.190;0.054102;0.655851
5.200;0.056600;0.631346
5.210;0.063963;0.605284
5.220;0.072348;0.578748
5.230;0.078576;0.552341
5.240;0.081122;0.526070
5.250;0.080569;0.499507
5.260;0.079342;0.472105
5.270;0.080824;0.443536
5.280;0.088145;0.413916
5.290;0.103084;0.383876
5.300;0.125432;0.354470
5.310;0.153027;0.326945
5.320;0.182390;0.302443
5.330;0.209730;0.281740
5.340;0.231947;0.265088
5.350;0.247329;0.252229
5.360;0.255733;0.242511
5.370;0.258254;0.235090
5.380;0.256553;0.229117
5.390;0.252117;0.223867
5.400;0.245752;0.218761
5.410;0.237512;0.213296
5.420;0.227043;0.206945
5.430;0.214170;0.199106
5.440;0.199440;0.189138
5.450;0.184392;0.176515
5.460;0.171395;0.161025
5.470;0.163099;0.142942
5.480;0.161628;0.123068
5.490;0.167820;0.102635
5.500;0.180771;0.083124
5.510;0.197884;0.066013
5.520;0.215436;0.052518
5.530;0.229461;0.043346
5.540;0.236662;0.038553
5.550;0.235025;0.037583
5.560;0.223946;0.039513
5.570;0.203869;0.043425
5.580;0.175574;0.048771
5.590;0.139393;0.055593
5.600;0.094674;0.064542
5.610;0.039732;0.076698
5.620;-0.027588;0.093200
5.630;-0.108880;0.114804
5.640;-0.204008;0.141510
5.650;-0.310259;0.172409
5.660;-0.422210;0.205785
5.670;-0.532458;0.239462
5.680;-0.633016;0.271306
5.690;-0.716900;0.299731
5.700;-0.779417;0.324039
5.710;-0.818796;0.344457
5.720;-0.836108;0.361856
5.730;-0.834657;0.377275
5.740;-0.819110;0.391438
5.750;-0.794630;0.404448
5.760;-0.766184;0.415756
5.770;-0.738069;0.424375
5.780;-0.713652;0.429256
5.790;-0.695220;0.429679
5.800;-0.683906;0.425516
5.810;-0.679664;0.417300
5.820;-0.681365;0.406057
5.830;-0.687078;0.393010
5.840;-0.694567;0.379256
5.850;-0.701890;0.365566
5.860;-0.707919;0.352332
5.870;-0.712595;0.339614
5.880;-0.716823;0.327228
5.890;-0.722072;0.314836
5.900;-0.729828;0.302043
5.910;-0.741125;0.288462
5.920;-0.756320;0.273711
5.930;-0.775170;0.257349
5.940;-0.797135;0.238803
5.950;-0.821704;0.217358
5.960;-0.848523;0.192239
5.970;-0.877192;0.162850
5.980;-0.906782;0.129126
5.990;-0.935312;0.091916
6.000;-0.959480;0.053169
6.010;-0.974887;0.015703
6.020;-0.976770;-0.017489
6.030;-0.961052;-0.044178
6.040;-0.925340;-0.063678
6.050;-0.869461;-0.077097
6.060;-0.795312;-0.086954
6.070;-0.706111;-0.096313
6.080;-0.605384;-0.107777
6.090;-0.496117;-0.122705
6.100;-0.380434;-0.140871
6.110;-0.259830;-0.160664
6.120;-0.135755;-0.179733
6.130;-0.010155;-0.195849
6.140;0.114341;-0.207651
6.150;0.234675;-0.214985
6.160;0.347915;-0.218751
6.170;0.451831;-0.220382
6.180;0.545273;-0.221253
6.190;0.628272;-0.222250
6.200;0.701883;-0.223619
6.210;0.767864;-0.225062
6.220;0.828265;-0.225958
6.230;0.885009;-0.225622
6.240;0.939536;-0.223556
6.250;0.992546;-0.219645
6.260;1.043902;-0.214247
6.270;1.092677;-0.208118
6.280;1.137320;-0.202171
6.290;1.175921;-0.197161
6.300;1.206533;-0.193452
6.310;1.227546;-0.191004
6.320;1.238044;-0.189569
6.330;1.238036;-0.188966
6.340;1.228474;-0.189286
6.350;1.210996;-0.190887
6.360;1.187449;-0.194195
6.370;1.159353;-0.199400
6.380;1.127517;-0.206186
6.390;1.092002;-0.213594
6.400;1.052467;-0.220074
6.410;1.008764;-0.223727
6.420;0.961490;-0.222702
6.430;0.912212;-0.215649
6.440;0.863240;-0.202097
6.450;0.817029;-0.182649
6.460;0.775486;-0.158902
6.470;0.739488;-0.133097
6.480;0.708784;-0.107610
6.490;0.682326;-0.084416
6.500;0.658846;-0.064711
6.510;0.637434;-0.048782
6.520;0.617835;-0.036123
6.530;0.600363;-0.025713
6.540;0.585456;-0.016347
6.550;0.573095;-0.006918
6.560;0.562333;0.003388
6.570;0.551146;0.014979
6.580;0.536691;0.027861
6.590;0.515901;0.041758
6.600;0.486266;0.056343
6.610;0.446582;0.071505
6.620;0.397489;0.087532
6.630;0.341596;0.105139
6.640;0.283076;0.125278
6.650;0.226781;0.148796
6.660;0.177055;0.176065
6.670;0.136641;0.206707
6.680;0.106046;0.239548
6.690;0.083612;0.272798
6.700;0.066277;0.304430
6.710;0.050768;0.332631
6.720;0.034840;0.356182
6.730;0.018122;0.374674
6.740;0.002288;0.388523
6.750;-0.009543;0.398816
6.760;-0.013982;0.406985
6.770;-0.008700;0.414366
6.780;0.006535;0.421735
6.790;0.029442;0.428959
6.800;0.055571;0.434950
6.810;0.079234;0.437972
6.820;0.094736;0.436234
6.830;0.097558;0.428545
6.840;0.085196;0.414757
6.850;0.057524;0.395777
6.860;0.016659;0.373158
6.870;-0.033562;0.348483
6.880;-0.088328;0.322819
6.890;-0.142636;0.296494
6.900;-0.191996;0.269231
6.910;-0.233012;0.240530
6.920;-0.263753;0.210080
6.930;-0.283851;0.178052
6.940;-0.294256;0.145201
6.950;-0.296704;0.112805
6.960;-0.293068;0.082455
6.970;-0.284791;0.055733
6.980;-0.272548;0.033826
6.990;-0.256178;0.017167
7.000;-0.234868;0.005216
7.010;-0.207541;-0.003529
7.020;-0.173344;-0.011252
7.030;-0.132080;-0.020312
7.040;-0.084459;-0.032646
7.050;-0.032092;-0.049247
7.060;0.022746;-0.069913
7.070;0.077498;-0.093344
7.080;0.129793;-0.117567
7.090;0.177916;-0.140485
7.100;0.221168;-0.160336
7.110;0.260005;-0.175882
7.120;0.295876;-0.186362
7.130;0.330746;-0.191332
7.140;0.366410;-0.190559
7.150;0.403812;-0.184013
7.160;0.442621;-0.171909
7.170;0.481248;-0.154719
7.180;0.517287;-0.133114
7.190;0.548200;-0.107874
7.200;0.571981;-0.079831
7.210;0.587609;-0.049890
7.220;0.595215;-0.019074
7.230;0.595999;0.011480
7.240;0.591964;0.040633
7.250;0.585576;0.067457
7.260;0.579413;0.091467
7.270;0.575878;0.112770
7.280;0.576980;0.132028
7.290;0.584181;0.150229
7.300;0.598235;0.168350
7.310;0.619021;0.187066
7.320;0.645397;0.206657
7.330;0.675183;0.227101
7.340;0.705369;0.248261
7.350;0.732573;0.269971
7.360;0.753615;0.291989
7.370;0.766025;0.313890
7.380;0.768284;0.335050
7.390;0.759744;0.354775
7.400;0.740290;0.372522
7.410;0.709950;0.388100
7.420;0.668676;0.401765
7.430;0.616449;0.414178
7.440;0.553720;0.426293
7.450;0.481986;0.439190
7.460;0.404221;0.453925
7.470;0.324846;0.471408
7.480;0.249131;0.492310
7.490;0.182158;0.517016
7.500;0.127688;0.545598
7.510;0.087366;0.577815
7.520;0.060573;0.613103
7.530;0.044988;0.650611
7.540;0.037594;0.689271
7.550;0.035730;0.727929
7.560;0.037753;0.765510
7.570;0.043147;0.801161
7.580;0.052113;0.834326
7.590;0.064916;0.864726
7.600;0.081260;0.892250
7.610;0.099944;0.916829
7.620;0.118872;0.938357
7.630;0.135414;0.956750
7.640;0.146982;0.972103
7.650;0.151698;0.984883
7.660;0.148959;0.996035
7.670;0.139765;1.006909
7.680;0.126676;1.018969
7.690;0.113391;1.033353
7.700;0.103978;1.050448
7.710;0.101967;1.069680
7.720;0.109571;1.089659
7.730;0.127304;1.108665
7.740;0.154185;1.125273
7.750;0.188466;1.138840
7.760;0.228589;1.149640
7.770;0.273937;1.158584
7.780;0.325029;1.166714
7.790;0.383083;1.174711
7.800;0.449156;1.182662
7.810;0.523235;1.190118
7.820;0.603671;1.196329
7.830;0.687176;1.200498
7.840;0.769412;1.201918
7.850;0.846017;1.199999
7.860;0.913720;1.194215
7.870;0.971165;1.184094
7.880;1.019125;1.169258
7.890;1.060037;1.149515
7.900;1.097073;1.124919
7.910;1.133146;1.095794
7.920;1.170268;1.062708
7.930;1.209442;1.026421
7.940;1.251033;0.987837
7.950;1.295321;0.947969
7.960;1.342925;0.907919
7.970;1.394844;0.868839
7.980;1.452078;0.831858
7.990;1.514979;0.797948
8.000;1.582662;0.767766
8.010;1.652755;0.741551
8.020;1.721645;0.719141
8.030;1.785123;0.700139
8.040;1.839189;0.684129
8.050;1.880783;0.670845
8.060;1.908260;0.660212
8.070;1.921578;0.652267
8.080;1.922227;0.647012
8.090;1.912945;0.644283
8.100;1.897230;0.643711
8.110;1.878676;0.644778
8.120;1.860225;0.646967
8.130;1.843522;0.649889
8.140;1.828640;0.653359
8.150;1.814327;0.657344
8.160;1.798713;0.661833
8.170;1.780195;0.666662
