Time[s];COPx[cm];COPy[cm]
0.010;-0.921953;-0.759772
0.020;-0.959005;-0.702104
0.030;-1.000898;-0.644897
0.040;-1.051380;-0.588804
0.050;-1.112443;-0.534713
0.060;-1.184051;-0.483587
0.070;-1.264267;-0.436183
0.080;-1.349674;-0.392773
0.090;-1.435999;-0.353012
0.100;-1.518905;-0.315993
0.110;-1.594813;-0.280472
0.120;-1.661591;-0.245237
0.130;-1.718829;-0.209508
0.140;-1.767622;-0.173246
0.150;-1.809913;-0.137230
0.160;-1.847687;-0.102814
0.170;-1.882294;-0.071436
0.180;-1.914142;-0.044071
0.190;-1.942797;-0.020873
0.200;-1.967425;-0.001135
0.210;-1.987360;0.016440
0.220;-2.002578;0.033326
0.230;-2.013892;0.050764
0.240;-2.022821;0.069432
0.250;-2.031243;0.089277
0.260;-2.041011;0.109522
0.270;-2.053722;0.128899
0.280;-2.070738;0.146059
0.290;-2.093418;0.160081
0.300;-2.123400;0.170917
0.310;-2.162720;0.179605
0.320;-2.213650;0.188118
0.330;-2.278269;0.198830
0.340;-2.357882;0.213744
0.350;-2.452471;0.233704
0.360;-2.560338;0.257916
0.370;-2.678055;0.283966
0.380;-2.800842;0.308397
0.390;-2.923374;0.327686
0.400;-3.040869;0.339264
0.410;-3.150077;0.342212
0.420;-3.249771;0.337400
0.430;-3.340482;0.327095
0.440;-3.423621;0.314290
0.450;-3.500388;0.302002
0.460;-3.570945;0.292727
0.470;-3.634170;0.288074
0.480;-3.687989;0.288566
0.490;-3.730050;0.293626
0.500;-3.758443;0.301798
0.510;-3.772195;0.311208
0.520;-3.771474;0.320147
0.530;-3.757545;0.327535
0.540;-3.732575;0.333077
0.550;-3.699369;0.337070
0.560;-3.661064;0.340039
0.570;-3.620802;0.342420
0.580;-3.581447;0.344439
0.590;-3.545349;0.346163
0.600;-3.514158;0.347605
0.610;-3.488704;0.348740
0.620;-3.468966;0.349428
0.630;-3.454190;0.349274
0.640;-3.443137;0.347557
0.650;-3.434373;0.343307
0.660;-3.426526;0.335560
0.670;-3.418436;0.323686
0.680;-3.409258;0.307651
0.690;-3.398550;0.288060
0.700;-3.386349;0.265963
0.710;-3.373175;0.242470
0.720;-3.359877;0.218336
0.730;-3.347297;0.193668
0.740;-3.335836;0.167864
0.750;-3.325090;0.139810
0.760;-3.313728;0.108264
0.770;-3.299696;0.072298
0.780;-3.280713;0.031645
0.790;-3.254945;-0.013113
0.800;-3.221622;-0.060548
0.810;-3.181383;-0.108601
0.820;-3.136212;-0.154982
0.830;-3.089016;-0.197719
0.840;-3.043007;-0.235649
0.850;-3.001148;-0.268662
0.860;-2.965794;-0.297594
0.870;-2.938561;-0.323861
0.880;-2.920291;-0.349022
0.890;-2.910993;-0.374476
0.900;-2.909716;-0.401339
0.910;-2.914481;-0.430408
0.920;-2.922474;-0.462152
0.930;-2.930580;-0.496676
0.940;-2.936163;-0.533713
0.950;-2.937759;-0.572631
0.960;-2.935374;-0.612474
0.970;-2.930236;-0.652007
0.980;-2.924115;-0.689783
0.990;-2.918520;-0.724277
1.000;-2.914098;-0.754078
1.010;-2.910426;-0.778140
1.020;-2.906224;-0.796036
1.030;-2.899866;-0.808115
1.040;-2.889983;-0.815472
1.050;-2.875950;-0.819663
1.060;-2.858079;-0.822228
1.070;-2.837484;-0.824238
1.080;-2.815694;-0.826051
1.090;-2.794141;-0.827401
1.100;-2.773683;-0.827745
1.110;-2.754304;-0.826744
1.120;-2.735104;-0.824680
1.130;-2.714618;-0.822660
1.140;-2.691385;-0.822511
1.150;-2.664572;-0.826352
1.160;-2.634403;-0.835923
1.170;-2.602220;-0.851885
1.180;-2.570184;-0.873358
1.190;-2.540745;-0.897894
1.200;-2.516045;-0.921967
1.210;-2.497421;-0.941814
1.220;-2.485120;-0.954394
1.230;-2.478304;-0.958156
1.240;-2.475345;-0.953430
1.250;-2.474322;-0.942374
1.260;-2.473508;-0.928499
1.270;-2.471680;-0.915893
1.280;-2.468168;-0.908315
1.290;-2.462692;-0.908340
1.300;-2.455139;-0.916778
1.310;-2.445351;-0.932511
1.320;-2.433008;-0.952836
1.330;-2.417613;-0.974203
1.340;-2.398620;-0.993138
1.350;-2.375673;-1.007045
1.360;-2.348876;-1.014621
1.370;-2.318965;-1.015809
1.380;-2.287293;-1.011394
1.390;-2.255593;-1.002508
1.400;-2.225599;-0.990272
1.410;-2.198637;-0.975695
1.420;-2.175332;-0.959765
1.430;-2.155539;-0.943622
1.440;-2.138566;-0.928655
1.450;-2.123604;-0.916448
1.460;-2.110241;-0.908576
1.470;-2.098817;-0.906259
1.480;-2.090486;-0.909996
1.490;-2.086975;-0.919290
1.500;-2.090140;-0.932601
1.510;-2.101521;-0.947567
1.520;-2.122014;-0.961443
1.530;-2.151742;-0.971653
1.540;-2.190099;-0.976322
1.550;-2.235881;-0.974658
1.560;-2.287423;-0.967077
1.570;-2.342695;-0.955054
1.580;-2.399432;-0.940732
1.590;-2.455393;-0.926399
1.600;-2.508747;-0.913932
1.610;-2.558441;-0.904397
1.620;-2.604329;-0.897924
1.630;-2.646949;-0.893891
1.640;-2.687033;-0.891320
1.650;-2.724976;-0.889299
1.660;-2.760465;-0.887283
1.670;-2.792416;-0.885216
1.680;-2.819215;-0.883451
1.690;-2.839178;-0.882536
1.700;-2.851073;-0.882910
1.710;-2.854529;-0.884648
1.720;-2.850193;-0.887363
1.730;-2.839646;-0.890281
1.740;-2.825089;-0.892458
1.750;-2.808937;-0.893024
1.760;-2.793419;-0.891368
1.770;-2.780289;-0.887242
1.780;-2.770700;-0.880762
1.790;-2.765237;-0.872359
1.800;-2.764049;-0.862713
1.810;-2.766972;-0.852705
1.820;-2.773603;-0.843353
1.830;-2.783331;-0.835685
1.840;-2.795371;-0.830564
1.850;-2.808880;-0.828478
1.860;-2.823142;-0.829380
1.870;-2.837759;-0.832649
1.880;-2.852709;-0.837219
1.890;-2.868241;-0.841865
1.900;-2.884628;-0.845526
1.910;-2.901908;-0.847542
1.920;-2.919743;-0.847703
1.930;-2.937436;-0.846125
1.940;-2.954077;-0.843033
1.950;-2.968741;-0.838543
1.960;-2.980608;-0.832551
1.970;-2.988998;-0.824766
1.980;-2.993311;-0.814899
1.990;-2.992958;-0.802879
2.000;-2.987363;-0.788992
2.010;-2.976052;-0.773847
2.020;-2.958808;-0.758180
2.030;-2.935833;-0.742630
2.040;-2.907825;-0.727598
2.050;-2.875934;-0.713230
2.060;-2.841594;-0.699478
2.070;-2.806296;-0.686182
2.080;-2.771395;-0.673128
2.090;-2.738020;-0.660144
2.100;-2.707120;-0.647201
2.110;-2.679547;-0.634512
2.120;-2.656102;-0.622519
2.130;-2.637475;-0.611754
2.140;-2.624101;-0.602639
2.150;-2.616023;-0.595332
2.160;-2.612813;-0.589700
2.170;-2.613619;-0.585405
2.180;-2.617301;-0.582005
2.190;-2.622612;-0.578998
2.200;-2.628387;-0.575821
2.210;-2.633677;-0.571903
2.220;-2.637785;-0.566822
2.230;-2.640206;-0.560517
2.240;-2.640493;-0.553432
2.250;-2.638103;-0.546497
2.260;-2.632312;-0.540900
2.270;-2.622218;-0.537746
2.280;-2.606885;-0.537714
2.290;-2.585579;-0.540839
2.300;-2.558032;-0.546494
2.310;-2.524610;-0.553531
2.320;-2.486304;-0.560545
2.330;-2.444514;-0.566189
2.340;-2.400706;-0.569462
2.350;-2.356033;-0.569908
2.360;-2.311064;-0.567657
2.370;-2.265759;-0.563281
2.380;-2.219717;-0.557521
2.390;-2.172635;-0.550973
2.400;-2.124704;-0.543873
2.410;-2.076728;-0.536047
2.420;-2.029871;-0.527060
2.430;-1.985201;-0.516451
2.440;-1.943298;-0.503980
2.450;-1.904157;-0.489754
2.460;-1.867384;-0.474227
2.470;-1.832576;-0.458103
2.480;-1.799633;-0.442202
2.490;-1.768860;-0.427355
2.500;-1.740830;-0.414329
2.510;-1.716127;-0.403763
2.520;-1.695111;-0.396045
2.530;-1.677802;-0.391100
2.540;-1.663890;-0.388163
2.550;-1.652803;-0.385685
2.560;-1.643784;-0.381566
2.570;-1.635943;-0.373741
2.580;-1.628350;-0.360972
2.590;-1.620214;-0.343513
2.600;-1.611115;-0.323317
2.610;-1.601150;-0.303623
2.620;-1.590861;-0.287998
2.630;-1.580918;-0.279145
2.640;-1.571708;-0.277933
2.650;-1.563050;-0.283062
2.660;-1.554190;-0.291526
2.670;-1.544083;-0.299732
2.680;-1.531818;-0.304804
2.690;-1.516961;-0.305514
2.700;-1.499662;-0.302467
2.710;-1.480525;-0.297501
2.720;-1.460321;-0.292642
2.730;-1.439726;-0.289125
2.740;-1.419164;-0.286906
2.750;-1.398818;-0.284793
2.760;-1.378747;-0.281061
2.770;-1.359045;-0.274241
2.780;-1.339973;-0.263760
2.790;-1.322025;-0.250207
2.800;-1.305909;-0.235152
2.810;-1.292440;-0.220659
2.820;-1.282352;-0.208707
2.830;-1.276114;-0.200751
2.840;-1.273837;-0.197525
2.850;-1.275307;-0.199068
2.860;-1.280130;-0.204851
2.870;-1.287908;-0.213927
2.880;-1.298362;-0.225062
2.890;-1.311375;-0.236905
2.900;-1.326963;-0.248210
2.910;-1.345181;-0.258096
2.920;-1.366027;-0.266252
2.930;-1.389340;-0.272978
2.940;-1.414747;-0.278987
2.950;-1.441673;-0.285013
2.960;-1.469426;-0.291388
2.970;-1.497352;-0.297811
2.980;-1.525011;-0.303452
2.990;-1.552307;-0.307354
3.000;-1.579528;-0.308921
3.010;-1.607264;-0.308249
3.020;-1.636236;-0.306168
3.030;-1.667092;-0.304015
3.040;-1.700219;-0.303265
3.050;-1.735619;-0.305165
3.060;-1.772855;-0.310471
3.070;-1.811107;-0.319308
3.080;-1.849310;-0.331143
3.090;-1.886386;-0.344866
3.100;-1.921491;-0.358973
3.110;-1.954201;-0.371824
3.120;-1.984536;-0.381946
3.130;-2.012830;-0.388273
3.140;-2.039534;-0.390276
3.150;-2.065116;-0.387928
3.160;-2.090102;-0.381576
3.170;-2.115207;-0.371779
3.180;-2.141396;-0.359232
3.190;-2.169782;-0.344818
3.200;-2.201369;-0.329735
3.210;-2.236769;-0.315538
3.220;-2.276043;-0.303978
3.230;-2.318801;-0.296586
3.240;-2.364570;-0.294139
3.250;-2.413335;-0.296250
3.260;-2.466054;-0.301307
3.270;-2.524887;-0.306875
3.280;-2.592995;-0.310478
3.290;-2.673828;-0.310496
3.300;-2.770038;-0.306867
3.310;-2.882269;-0.301346
3.320;-3.008247;-0.297176
3.330;-3.142626;-0.298207
3.340;-3.277872;-0.307663
3.350;-3.406116;-0.326995
3.360;-3.521312;-0.355303
3.370;-3.620832;-0.389594
3.380;-3.705783;-0.425749
3.390;-3.779977;-0.459741
3.400;-3.848100;-0.488627
3.410;-3.913868;-0.511061
3.420;-3.978808;-0.527307
3.430;-4.041931;-0.538855
3.440;-4.100252;-0.547792
3.450;-4.149866;-0.556126
3.460;-4.187186;-0.565259
3.470;-4.209976;-0.575723
3.480;-4.217915;-0.587224
3.490;-4.212620;-0.598867
3.500;-4.197185;-0.609478
3.510;-4.175451;-0.617943
3.520;-4.151200;-0.623560
3.530;-4.127458;-0.626341
3.540;-4.106050;-0.627187
3.550;-4.087487;-0.627798
3.560;-4.071206;-0.630261
3.570;-4.056082;-0.636397
3.580;-4.041008;-0.647096
3.590;-4.025376;-0.661934
3.600;-4.009313;-0.679232
3.610;-3.993663;-0.696516
3.620;-3.979753;-0.711203
3.630;-3.969070;-0.721258
3.640;-3.962920;-0.725639
3.650;-3.962139;-0.724436
3.660;-3.966881;-0.718693
3.670;-3.976533;-0.710013
3.680;-3.989763;-0.700122
3.690;-4.004696;-0.690517
3.700;-4.019209;-0.682275
3.710;-4.031277;-0.675967
3.720;-4.039301;-0.671643
3.730;-4.042322;-0.668853
3.740;-4.040074;-0.666737
3.750;-4.032901;-0.664214
3.760;-4.021609;-0.660280
3.770;-4.007352;-0.654343
3.780;-3.991556;-0.646435
3.790;-3.975869;-0.637204
3.800;-3.962051;-0.627663
3.810;-3.951771;-0.618853
3.820;-3.946321;-0.611560
3.830;-3.946320;-0.606198
3.840;-3.951515;-0.602796
3.850;-3.960772;-0.601060
3.860;-3.972313;-0.600436
3.870;-3.984170;-0.600214
3.880;-3.994688;-0.599654
3.890;-4.002888;-0.598140
3.900;-4.008539;-0.595303
3.910;-4.011961;-0.591099
3.920;-4.013712;-0.585791
3.930;-4.014322;-0.579838
3.940;-4.014189;-0.573719
3.950;-4.013617;-0.567737
3.960;-4.012908;-0.561902
3.970;-4.012376;-0.555940
3.980;-4.012233;-0.549418
3.990;-4.012388;-0.541927
4.000;-4.012250;-0.533247
4.010;-4.010659;-0.523431
4.020;-4.006003;-0.512824
4.030;-3.996547;-0.502027
4.040;-3.980882;-0.491827
4.050;-3.958345;-0.483063
4.060;-3.929244;-0.476444
4.070;-3.894783;-0.472370
4.080;-3.856726;-0.470855
4.090;-3.816947;-0.471638
4.100;-3.777059;-0.474437
4.110;-3.738227;-0.479218
4.120;-3.701154;-0.486309
4.130;-3.666138;-0.496267
4.140;-3.633090;-0.509530
4.150;-3.601543;-0.526044
4.160;-3.570731;-0.545069
4.170;-3.539792;-0.565302
4.180;-3.508077;-0.585301
4.190;-3.475436;-0.604005
4.200;-3.442316;-0.621113
4.210;-3.409617;-0.637134
4.220;-3.378340;-0.653096
4.230;-3.349193;-0.670075
4.240;-3.322292;-0.688764
4.250;-3.297077;-0.709285
4.260;-3.272466;-0.731281
4.270;-3.247204;-0.754203
4.280;-3.220300;-0.777625
4.290;-3.191390;-0.801448
4.300;-3.160924;-0.825937
4.310;-3.130109;-0.851603
4.320;-3.100658;-0.879010
4.330;-3.074424;-0.908564
4.340;-3.053043;-0.940366
4.350;-3.037638;-0.974153
4.360;-3.028683;-1.009296
4.370;-3.026009;-1.044850
4.380;-3.028964;-1.079615
4.390;-3.036649;-1.112264
4.400;-3.048132;-1.141514
4.410;-3.062580;-1.166336
4.420;-3.079232;-1.186132
4.430;-3.097271;-1.200829
4.440;-3.115681;-1.210878
4.450;-3.133233;-1.217192
4.460;-3.148642;-1.221063
4.470;-3.160862;-1.224033
4.480;-3.169366;-1.227708
4.490;-3.174250;-1.233466
4.500;-3.176110;-1.242145
4.510;-3.175761;-1.253823
4.520;-3.173953;-1.267798
4.530;-3.171228;-1.282801
4.540;-3.167936;-1.297345
4.550;-3.164362;-1.310066
4.560;-3.160837;-1.319970
4.570;-3.157765;-1.326515
4.580;-3.155570;-1.329557
4.590;-3.154612;-1.329194
4.600;-3.155144;-1.325612
4.610;-3.157313;-1.319002
4.620;-3.161195;-1.309569
4.630;-3.166832;-1.297583
4.640;-3.174279;-1.283423
4.650;-3.183675;-1.267538
4.660;-3.195326;-1.250338
4.670;-3.209726;-1.232055
4.680;-3.227483;-1.212653
4.690;-3.249128;-1.191860
4.700;-3.274893;-1.169337
4.710;-3.304561;-1.144940
4.720;-3.337466;-1.118917
4.730;-3.372648;-1.091947
4.740;-3.409115;-1.064991
4.750;-3.446101;-1.039018
4.760;-3.483183;-1.014771
4.770;-3.520197;-0.992643
4.780;-3.556994;-0.972708
4.790;-3.593146;-0.954856
4.800;-3.627763;-0.938934
4.810;-3.659525;-0.924854
4.820;-3.686917;-0.912614
4.830;-3.708615;-0.902219
4.840;-3.723860;-0.893560
4.850;-3.732697;-0.886316
4.860;-3.736012;-0.879989
4.870;-3.735346;-0.874071
4.880;-3.732544;-0.868249
4.890;-3.729394;-0.862517
4.900;-3.727328;-0.857094
4.910;-3.727223;-0.852202
4.920;-3.729304;-0.847802
4.930;-3.733135;-0.843482
4.940;-3.737769;-0.838561
4.950;-3.742040;-0.832383
4.960;-3.744950;-0.824616
4.970;-3.746032;-0.815369
4.980;-3.745575;-0.805088
4.990;-3.744590;-0.794310
5.000;-3.744519;-0.783489
5.010;-3.746772;-0.772974
5.020;-3.752286;-0.763091
5.030;-3.761285;-0.754177
5.040;-3.773338;-0.746447
5.050;-3.787637;-0.739768
5.060;-3.803337;-0.733509
5.070;-3.819799;-0.726623
5.080;-3.836650;-0.717977
5.090;-3.853681;-0.706789
5.100;-3.870677;-0.692928
5.110;-3.887292;-0.676935
5.120;-3.903016;-0.659745
5.130;-3.917263;-0.642276
5.140;-3.929503;-0.625123
5.150;-3.939385;-0.608492
5.160;-3.946797;-0.592364
5.170;-3.951850;-0.576762
5.180;-3.954802;-0.561939
5.190;-3.955952;-0.548386
5.200;-3.955551;-0.536641
5.210;-3.953766;-0.526985
5.220;-3.950690;-0.519169
5.230;-3.946389;-0.512343
5.240;-3.940968;-0.505250
5.250;-3.934621;-0.496648
5.260;-3.927637;-0.485773
5.270;-3.920355;-0.472639
5.280;-3.913089;-0.458004
5.290;-3.906081;-0.443011
5.300;-3.899501;-0.428651
5.310;-3.893522;-0.415324
5.320;-3.888422;-0.402706
5.330;-3.884639;-0.390001
5.340;-3.882722;-0.376445
5.350;-3.883197;-0.361805
5.360;-3.886401;-0.346633
5.370;-3.892403;-0.332150
5.380;-3.901017;-0.319847
5.390;-3.911885;-0.310974
5.400;-3.924555;-0.306118
5.410;-3.938534;-0.305014
5.420;-3.953328;-0.306617
5.430;-3.968506;-0.309394
5.440;-3.983797;-0.311750
5.450;-3.999158;-0.312446
5.460;-4.014763;-0.310863
5.470;-4.030888;-0.307016
5.480;-4.047711;-0.301398
5.490;-4.065101;-0.294758
5.500;-4.082496;-0.287920
5.510;-4.098936;-0.281687
5.520;-4.113267;-0.276793
5.530;-4.124469;-0.273866
5.540;-4.132014;-0.273382
5.550;-4.136105;-0.275617
5.560;-4.137699;-0.280621
5.570;-4.138270;-0.288264
5.580;-4.139391;-0.298324
5.590;-4.142282;-0.310600
5.600;-4.147494;-0.324974
5.610;-4.154851;-0.341402
5.620;-4.163645;-0.359811
5.630;-4.172956;-0.379981
5.640;-4.181975;-0.401455
5.650;-4.190167;-0.423522
5.660;-4.197263;-0.445289
5.670;-4.203096;-0.465845
5.680;-4.207406;-0.484530
5.690;-4.209723;-0.501211
5.700;-4.209410;-0.516412
5.710;-4.205836;-0.531160
5.720;-4.198611;-0.546593
5.730;-4.187781;-0.563497
5.740;-4.173901;-0.581977
5.750;-4.157961;-0.601384
5.760;-4.141188;-0.620509
5.770;-4.124816;-0.637954
5.780;-4.109886;-0.652558
5.790;-4.097140;-0.663712
5.800;-4.087005;-0.671495
5.810;-4.079613;-0.676594
5.820;-4.074835;-0.680098
5.830;-4.072279;-0.683258
5.840;-4.071313;-0.687271
5.850;-4.071154;-0.693099
5.860;-4.071014;-0.701300
5.870;-4.070261;-0.711908
5.880;-4.068515;-0.724412
5.890;-4.065648;-0.737908
5.900;-4.061708;-0.751388
5.910;-4.056844;-0.764029
5.920;-4.051255;-0.775323
5.930;-4.045177;-0.785006
5.940;-4.038849;-0.792878
5.950;-4.032470;-0.798665
5.960;-4.026165;-0.802035
5.970;-4.019980;-0.802737
5.980;-4.013910;-0.800781
5.990;-4.007902;-0.796560
6.000;-4.001831;-0.790846
6.010;-3.995423;-0.784663
6.020;-3.988185;-0.779093
6.030;-3.979417;-0.775107
6.040;-3.968320;-0.773453
6.050;-3.954174;-0.774593
6.060;-3.936520;-0.778660
6.070;-3.915288;-0.785443
6.080;-3.890822;-0.794426
6.090;-3.863794;-0.804880
6.100;-3.835010;-0.815961
6.110;-3.805185;-0.826766
6.120;-3.774747;-0.836324
6.130;-3.743768;-0.843573
6.140;-3.712025;-0.847359
6.150;-3.679202;-0.846522
6.160;-3.645141;-0.840072
6.170;-3.610063;-0.827433
6.180;-3.574689;-0.808688
6.190;-3.540196;-0.784745
6.200;-3.508044;-0.757379
6.210;-3.479711;-0.729083
6.220;-3.456396;-0.702712
6.230;-3.438802;-0.680960
6.240;-3.427034;-0.665771
6.250;-3.420649;-0.657868
6.260;-3.418830;-0.656578
6.270;-3.420619;-0.660075
6.280;-3.425106;-0.665981
6.290;-3.431523;-0.672128
6.300;-3.439204;-0.677160
6.310;-3.447469;-0.680738
6.320;-3.455550;-0.683294
6.330;-3.462651;-0.685498
6.340;-3.468148;-0.687749
6.350;-3.471834;-0.689948
6.360;-3.474047;-0.691642
6.370;-3.475597;-0.692413
6.380;-3.477505;-0.692245
6.390;-3.480651;-0.691652
6.400;-3.485471;-0.691498
6.410;-3.491814;-0.692634
6.420;-3.499010;-0.695540
6.430;-3.506089;-0.700173
6.440;-3.512052;-0.706074
6.450;-3.516105;-0.712677
6.460;-3.517821;-0.719622
6.470;-3.517259;-0.726898
6.480;-3.515023;-0.734742
6.490;-3.512232;-0.743388
6.500;-3.510353;-0.752822
6.510;-3.510922;-0.762684
6.520;-3.515200;-0.772365
6.530;-3.523884;-0.781245
6.540;-3.537012;-0.788951
6.550;-3.554080;-0.795527
6.560;-3.574364;-0.801457
6.570;-3.597302;-0.807546
6.580;-3.622807;-0.814702
6.590;-3.651395;-0.823740
6.600;-3.684042;-0.835284
6.610;-3.721814;-0.849791
6.620;-3.765388;-0.867620
6.630;-3.814642;-0.889023
6.640;-3.868496;-0.914010
6.650;-3.925104;-0.942131
6.660;-3.982322;-0.972313
6.670;-4.038303;-1.002932
6.680;-4.091977;-1.032164
6.690;-4.143241;-1.058504
6.700;-4.192793;-1.081230
6.710;-4.241673;-1.100589
6.720;-4.290661;-1.117624
6.730;-4.339732;-1.133717
6.740;-4.387733;-1.150027
6.750;-4.432439;-1.167016
6.760;-4.470993;-1.184216
6.770;-4.500652;-1.200286
6.780;-4.519583;-1.213372
6.790;-4.527434;-1.221661
6.800;-4.525495;-1.223960
6.810;-4.516390;-1.220088
6.820;-4.503429;-1.210943
6.830;-4.489856;-1.198221
6.840;-4.478232;-1.183942
6.850;-4.470106;-1.169960
6.860;-4.466028;-1.157601
6.870;-4.465788;-1.147474
6.880;-4.468746;-1.139451
6.890;-4.474112;-1.132776
6.900;-4.481146;-1.126303
6.910;-4.489264;-1.118823
6.920;-4.498076;-1.109393
6.930;-4.507363;-1.097566
6.940;-4.517022;-1.083443
6.950;-4.526992;-1.067551
6.960;-4.537165;-1.050602
6.970;-4.547301;-1.033256
6.980;-4.556983;-1.015942
6.990;-4.565655;-0.998776
7.000;-4.572744;-0.981571
7.010;-4.577794;-0.963922
7.020;-4.580527;-0.945401
7.030;-4.580800;-0.925793
7.040;-4.578504;-0.905338
7.050;-4.573491;-0.884824
7.060;-4.565625;-0.865462
7.070;-4.554925;-0.848505
7.080;-4.541745;-0.834758
7.090;-4.526857;-0.824185
7.100;-4.511400;-0.815841
7.110;-4.496679;-0.808186
7.120;-4.483885;-0.799640
7.130;-4.473830;-0.789138
7.140;-4.466727;-0.776442
7.150;-4.462098;-0.762149
7.160;-4.458851;-0.747457
7.170;-4.455573;-0.733794
7.180;-4.450957;-0.722443
7.190;-4.444234;-0.714254
7.200;-4.435407;-0.709494
7.210;-4.425198;-0.707882
7.220;-4.414739;-0.708754
7.230;-4.405154;-0.711285
7.240;-4.397197;-0.714668
7.250;-4.391080;-0.718205
7.260;-4.386467;-0.721313
7.270;-4.382586;-0.723503
7.280;-4.378374;-0.724411
7.290;-4.372648;-0.723915
7.300;-4.364282;-0.722301
7.310;-4.352389;-0.720331
7.320;-4.336427;-0.719107
7.330;-4.316208;-0.719712
7.340;-4.291810;-0.722802
7.350;-4.263456;-0.728331
7.360;-4.231432;-0.735578
7.370;-4.196090;-0.743442
7.380;-4.157913;-0.750867
7.390;-4.117602;-0.757188
7.400;-4.076086;-0.762290
7.410;-4.034439;-0.766514
7.420;-3.993706;-0.770391
7.430;-3.954718;-0.774322
7.440;-3.917957;-0.778355
7.450;-3.883512;-0.782167
7.460;-3.851144;-0.785238
7.470;-3.820461;-0.787107
7.480;-3.791154;-0.787581
7.490;-3.763179;-0.786830
7.500;-3.736797;-0.785322
7.510;-3.712449;-0.783641
7.520;-3.690522;-0.782246
7.530;-3.671164;-0.781307
7.540;-3.654209;-0.780693
7.550;-3.639242;-0.780128
7.560;-3.625713;-0.779463
7.570;-3.613054;-0.778901
7.580;-3.600724;-0.779066
7.590;-3.588199;-0.780855
7.600;-3.574977;-0.785102
7.610;-3.560657;-0.792199
7.620;-3.545086;-0.801811
7.630;-3.528498;-0.812830
7.640;-3.511560;-0.823590
7.650;-3.495274;-0.832287
7.660;-3.480761;-0.837463
7.670;-3.468979;-0.838399
7.680;-3.460436;-0.835298
7.690;-3.454980;-0.829210
7.700;-3.451759;-0.821755
