Time[s];COPx[cm];COPy[cm]
0.010;1.056098;0.981472
0.020;1.052199;0.964723
0.030;1.047498;0.948751
0.040;1.041428;0.934189
0.050;1.033795;0.921340
0.060;1.024762;0.910050
0.070;1.014744;0.899725
0.080;1.004267;0.889493
0.090;0.993858;0.878460
0.100;0.983994;0.865970
0.110;0.975123;0.851770
0.120;0.967677;0.836078
0.130;0.962065;0.819496
0.140;0.958599;0.802806
0.150;0.957390;0.786716
0.160;0.958275;0.771637
0.170;0.960840;0.757604
0.180;0.964542;0.744314
0.190;0.968891;0.731268
0.200;0.973580;0.717924
0.210;0.978512;0.703854
0.220;0.983705;0.688866
0.230;0.989160;0.673062
0.240;0.994778;0.656779
0.250;1.000386;0.640447
0.260;1.005836;0.624404
0.270;1.011126;0.608771
0.280;1.016441;0.593458
0.290;1.022086;0.578293
0.300;1.028339;0.563171
0.310;1.035269;0.548138
0.320;1.042639;0.533357
0.330;1.049954;0.519027
0.340;1.056612;0.505350
0.350;1.062083;0.492568
0.360;1.066005;0.481017
0.370;1.068169;0.471071
0.380;1.068442;0.462974
0.390;1.066725;0.456643
0.400;1.063006;0.451587
0.410;1.057498;0.447021
0.420;1.050753;0.442131
0.430;1.043646;0.436373
0.440;1.037182;0.429688
0.450;1.032203;0.422518
0.460;1.029126;0.415628
0.470;1.027825;0.409802
0.480;1.027692;0.405560
0.490;1.027826;0.403003
0.500;1.027293;0.401843
0.510;1.025369;0.401557
0.520;1.021734;0.401589
0.530;1.016556;0.401516
0.540;1.010436;0.401153
0.550;1.004226;0.400573
0.560;0.998798;0.400054
0.570;0.994831;0.399960
0.580;0.992673;0.400579
0.590;0.992276;0.401969
0.600;0.993237;0.403903
0.610;0.994916;0.405978
0.620;0.996618;0.407839
0.630;0.997754;0.409404
0.640;0.997963;0.410933
0.650;0.997154;0.412903
0.660;0.995481;0.415777
0.670;0.993246;0.419810
0.680;0.990764;0.424990
0.690;0.988253;0.431092
0.700;0.985800;0.437773
0.710;0.983377;0.444662
0.720;0.980886;0.451446
0.730;0.978170;0.457933
0.740;0.975005;0.464076
0.750;0.971125;0.469926
0.760;0.966279;0.475559
0.770;0.960311;0.481016
0.780;0.953196;0.486292
0.790;0.945032;0.491380
0.800;0.936012;0.496331
0.810;0.926431;0.501273
0.820;0.916723;0.506364
0.830;0.907491;0.511706
0.840;0.899443;0.517289
0.850;0.893229;0.522999
0.860;0.889229;0.528676
0.870;0.887412;0.534158
0.880;0.887342;0.539316
0.890;0.888351;0.544078
0.900;0.889793;0.548428
0.910;0.891272;0.552382
0.920;0.892754;0.555954
0.930;0.894516;0.559131
0.940;0.896965;0.561910
0.950;0.900445;0.564330
0.960;0.905107;0.566483
0.970;0.910894;0.568473
0.980;0.917597;0.570350
0.990;0.924930;0.572092
1.000;0.932582;0.573638
1.010;0.940273;0.574927
1.020;0.947803;0.575909
1.030;0.955104;0.576509
1.040;0.962277;0.576600
1.050;0.969590;0.576041
1.060;0.977421;0.574765
1.070;0.986137;0.572864
1.080;0.995942;0.570593
1.090;1.006758;0.568279
1.100;1.018210;0.566197
1.110;1.029733;0.564465
1.120;1.040750;0.563010
1.130;1.050832;0.561625
1.140;1.059803;0.560097
1.150;1.067741;0.558321
1.160;1.074937;0.556321
1.170;1.081812;0.554171
1.180;1.088855;0.551922
1.190;1.096539;0.549567
1.200;1.105215;0.547069
1.210;1.114957;0.544376
1.220;1.125433;0.541450
1.230;1.135887;0.538285
1.240;1.145293;0.534958
1.250;1.152677;0.531674
1.260;1.157452;0.528746
1.270;1.159618;0.526502
1.280;1.159732;0.525132
1.290;1.158697;0.524537
1.300;1.157470;0.524265
1.310;1.156808;0.523637
1.320;1.157083;0.522029
1.330;1.158224;0.519182
1.340;1.159771;0.515351
1.350;1.161045;0.511208
1.360;1.161360;0.507540
1.370;1.160189;0.504892
1.380;1.157252;0.503312
1.390;1.152495;0.502308
1.400;1.146022;0.501040
1.410;1.138007;0.498677
1.420;1.128656;0.494732
1.430;1.118213;0.489266
1.440;1.106994;0.482856
1.450;1.095386;0.476361
1.460;1.083777;0.470585
1.470;1.072438;0.465979
1.480;1.061438;0.462518
1.490;1.050645;0.459819
1.500;1.039790;0.457394
1.510;1.028560;0.454903
1.520;1.016698;0.452274
1.530;1.004096;0.449671
1.540;0.990862;0.447361
1.550;0.977337;0.445567
1.560;0.964019;0.444354
1.570;0.951417;0.443586
1.580;0.939883;0.442972
1.590;0.929505;0.442183
1.600;0.920103;0.441018
1.610;0.911321;0.439542
1.620;0.902777;0.438119
1.630;0.894180;0.437295
1.640;0.885399;0.437579
1.650;0.876448;0.439228
1.660;0.867452;0.442137
1.670;0.858585;0.445890
1.680;0.850014;0.449935
1.690;0.841832;0.453783
1.700;0.834001;0.457150
1.710;0.826357;0.459989
1.720;0.818660;0.462450
1.730;0.810689;0.464798
1.740;0.802314;0.467307
1.750;0.793554;0.470150
1.760;0.784578;0.473337
1.770;0.775689;0.476721
1.780;0.767289;0.480090
1.790;0.759839;0.483285
1.800;0.753797;0.486295
1.810;0.749521;0.489295
1.820;0.747153;0.492602
1.830;0.746541;0.496579
1.840;0.747248;0.501504
1.850;0.748677;0.507456
1.860;0.750273;0.514255
1.870;0.751722;0.521495
1.880;0.753046;0.528663
1.890;0.754571;0.535301
1.900;0.756783;0.541144
1.910;0.760159;0.546172
1.920;0.765027;0.550568
1.930;0.771488;0.554602
1.940;0.779401;0.558514
1.950;0.788421;0.562459
1.960;0.798085;0.566521
1.970;0.807940;0.570734
1.980;0.817631;0.575058
1.990;0.826938;0.579328
2.000;0.835736;0.583240
2.010;0.843958;0.586450
2.020;0.851606;0.588729
2.030;0.858816;0.590106
2.040;0.865901;0.590893
2.050;0.873331;0.591577
2.060;0.881624;0.592645
2.070;0.891195;0.594424
2.080;0.902205;0.596995
2.090;0.914508;0.600198
2.100;0.927686;0.603696
2.110;0.941153;0.607091
2.120;0.954214;0.610059
2.130;0.966081;0.612468
2.140;0.975924;0.614405
2.150;0.983046;0.616078
2.160;0.987154;0.617656
2.170;0.988578;0.619116
2.180;0.988268;0.620222
2.190;0.987547;0.620635
2.200;0.987712;0.620102
2.210;0.989648;0.618593
2.220;0.993579;0.616329
2.230;0.999024;0.613683
2.240;1.004995;0.611030
2.250;1.010368;0.608601
2.260;1.014291;0.606396
2.270;1.016466;0.604172
2.280;1.017201;0.601484
2.290;1.017220;0.597782
2.300;1.017353;0.592530
2.310;1.018244;0.585340
2.320;1.020187;0.576103
2.330;1.023146;0.565054
2.340;1.026901;0.552720
2.350;1.031214;0.539752
2.360;1.035941;0.526685
2.370;1.041061;0.513775
2.380;1.046624;0.500987
2.390;1.052681;0.488131
2.400;1.059215;0.475041
2.410;1.066101;0.461698
2.420;1.073095;0.448261
2.430;1.079859;0.434993
2.440;1.086016;0.422144
2.450;1.091222;0.409802
2.460;1.095262;0.397800
2.470;1.098116;0.385732
2.480;1.099948;0.373103
2.490;1.101011;0.359519
2.500;1.101510;0.344830
2.510;1.101509;0.329137
2.520;1.100900;0.312686
2.530;1.099465;0.295751
2.540;1.096956;0.278539
2.550;1.093187;0.261185
2.560;1.088096;0.243789
2.570;1.081771;0.226488
2.580;1.074455;0.209516
2.590;1.066523;0.193232
2.600;1.058400;0.178078
2.610;1.050420;0.164487
2.620;1.042667;0.152771
2.630;1.034893;0.143056
2.640;1.026583;0.135252
2.650;1.017172;0.129083
2.660;1.006321;0.124133
2.670;0.994121;0.119956
2.680;0.981116;0.116221
2.690;0.968109;0.112824
2.700;0.955826;0.109937
2.710;0.944629;0.107953
2.720;0.934413;0.107364
2.730;0.924740;0.108601
2.740;0.915105;0.111862
2.750;0.905181;0.116992
2.760;0.894896;0.123483
2.770;0.884358;0.130621
2.780;0.873688;0.137727
2.790;0.862894;0.144384
2.800;0.851844;0.150544
2.810;0.840371;0.156492
2.820;0.828441;0.162715
2.830;0.816307;0.169722
2.840;0.804545;0.177905
2.850;0.793935;0.187431
2.860;0.785247;0.198204
2.870;0.779006;0.209886
2.880;0.775367;0.221993
2.890;0.774144;0.234031
2.900;0.774953;0.245628
2.910;0.777371;0.256630
2.920;0.781060;0.267117
2.930;0.785810;0.277324
2.940;0.791509;0.287513
2.950;0.798080;0.297852
2.960;0.805406;0.308369
2.970;0.813282;0.318976
2.980;0.821418;0.329551
2.990;0.829509;0.340015
3.000;0.837343;0.350345
3.010;0.844916;0.360547
3.020;0.852477;0.370598
3.030;0.860497;0.380443
3.040;0.869557;0.390039
3.050;0.880184;0.399436
3.060;0.892695;0.408807
3.070;0.907074;0.418404
3.080;0.922946;0.428442
3.090;0.939693;0.438992
3.100;0.956666;0.449956
3.110;0.973420;0.461139
3.120;0.989845;0.472358
3.130;1.006149;0.483486
3.140;1.022716;0.494404
3.150;1.039927;0.504905
3.160;1.058022;0.514640
3.170;1.077029;0.523167
3.180;1.096768;0.530081
3.190;1.116872;0.535145
3.200;1.136855;0.538346
3.210;1.156198;0.539863
3.220;1.174500;0.539994
3.230;1.191604;0.539089
3.240;1.207663;0.537522
3.250;1.223062;0.535663
3.260;1.238251;0.533835
3.270;1.253577;0.532258
3.280;1.269202;0.530998
3.290;1.285152;0.529942
3.300;1.301440;0.528804
3.310;1.318168;0.527187
3.320;1.335529;0.524696
3.330;1.353716;0.521095
3.340;1.372768;0.516400
3.350;1.392457;0.510866
3.360;1.412277;0.504868
3.370;1.431539;0.498724
3.380;1.449541;0.492543
3.390;1.465754;0.486158
3.400;1.479976;0.479175
3.410;1.492399;0.471122
3.420;1.503559;0.461627
3.430;1.514168;0.450552
3.440;1.524914;0.438021
3.450;1.536290;0.424340
3.460;1.548484;0.409834
3.470;1.561311;0.394701
3.480;1.574199;0.378947
3.490;1.586277;0.362474
3.500;1.596605;0.345257
3.510;1.604485;0.327506
3.520;1.609701;0.309699
3.530;1.612563;0.292484
3.540;1.613711;0.276468
3.550;1.613787;0.262022
3.560;1.613126;0.249131
3.570;1.611626;0.237366
3.580;1.608814;0.226000
3.590;1.604086;0.214252
3.600;1.596970;0.201602
3.610;1.587326;0.188036
3.620;1.575378;0.174099
3.630;1.561616;0.160675
3.640;1.546635;0.148609
3.650;1.530989;0.138332
3.660;1.515095;0.129699
3.670;1.499168;0.122090
3.680;1.483189;0.114715
3.690;1.466902;0.106966
3.700;1.449864;0.098671
3.710;1.431547;0.090130
3.720;1.411466;0.081923
3.730;1.389286;0.074603
3.740;1.364899;0.068441
3.750;1.338447;0.063380
3.760;1.310292;0.059192
3.770;1.280953;0.055690
3.780;1.250998;0.052882
3.790;1.220929;0.050951
3.800;1.191081;0.050130
3.810;1.161574;0.050557
3.820;1.132340;0.052195
3.830;1.103208;0.054871
3.840;1.074010;0.058343
3.850;1.044672;0.062370
3.860;1.015245;0.066711
3.870;0.985905;0.071095
3.880;0.956916;0.075224
3.890;0.928564;0.078831
3.900;0.901044;0.081759
3.910;0.874331;0.083998
3.920;0.848105;0.085674
3.930;0.821765;0.086977
3.940;0.794565;0.088108
3.950;0.765809;0.089253
3.960;0.735051;0.090605
3.970;0.702238;0.092382
3.980;0.667759;0.094788
3.990;0.632391;0.097883
4.000;0.597170;0.101456
4.010;0.563196;0.105014
4.020;0.531428;0.107929
4.030;0.502493;0.109661
4.040;0.476591;0.109918
4.050;0.453538;0.108674
4.060;0.432939;0.106097
4.070;0.414410;0.102487
4.080;0.397743;0.098288
4.090;0.382954;0.094106
4.100;0.370217;0.090657
4.110;0.359722;0.088611
4.120;0.351553;0.088353
4.130;0.345619;0.089806
4.140;0.341677;0.092398
4.150;0.339416;0.095221
4.160;0.338579;0.097338
4.170;0.339046;0.098067
4.180;0.340857;0.097180
4.190;0.344174;0.094944
4.200;0.349199;0.092030
4.210;0.356093;0.089334
4.220;0.364906;0.087735
4.230;0.375529;0.087863
4.240;0.387689;0.089958
4.250;0.400999;0.093863
4.260;0.415070;0.099160
4.270;0.429633;0.105356
4.280;0.444634;0.112014
4.290;0.460245;0.118769
4.300;0.476813;0.125267
4.310;0.494756;0.131143
4.320;0.514438;0.136111
4.330;0.536067;0.140127
4.340;0.559632;0.143521
4.350;0.584924;0.146982
4.360;0.611611;0.151379
4.370;0.639356;0.157499
4.380;0.667959;0.165816
4.390;0.697452;0.176396
4.400;0.728122;0.188955
4.410;0.760415;0.203001
4.420;0.794777;0.217993
4.430;0.831462;0.233427
4.440;0.870428;0.248855
4.450;0.911325;0.263863
4.460;0.953587;0.278058
4.470;0.996560;0.291092
4.480;1.039629;0.302712
4.490;1.082298;0.312857
4.500;1.124229;0.321730
4.510;1.165216;0.329791
4.520;1.205125;0.337619
4.530;1.243842;0.345699
4.540;1.281259;0.354242
4.550;1.317305;0.363149
4.560;1.351982;0.372126
4.570;1.385366;0.380879
4.580;1.417556;0.389269
4.590;1.448620;0.397342
4.600;1.478557;0.405231
4.610;1.507317;0.413018
4.620;1.534844;0.420653
4.630;1.561133;0.428007
4.640;1.586253;0.434994
4.650;1.610330;0.441701
4.660;1.633492;0.448402
4.670;1.655793;0.455448
4.680;1.677144;0.463084
4.690;1.697287;0.471319
4.700;1.715819;0.479938
4.710;1.732275;0.488657
4.720;1.746252;0.497299
4.730;1.757507;0.505861
4.740;1.766013;0.514445
4.750;1.771927;0.523141
4.760;1.775487;0.531977
4.770;1.776859;0.540952
4.780;1.776029;0.550084
4.790;1.772809;0.559390
4.800;1.767003;0.568783
4.810;1.758628;0.577999
4.820;1.748052;0.586617
4.830;1.735942;0.594217
4.840;1.722997;0.600570
4.850;1.709619;0.605758
4.860;1.695688;0.610131
4.870;1.680565;0.614143
4.880;1.663303;0.618162
4.890;1.642923;0.622382
4.900;1.618638;0.626846
4.910;1.589983;0.631516
4.920;1.556897;0.636325
4.930;1.519785;0.641178
4.940;1.479542;0.645928
4.950;1.437468;0.650363
4.960;1.395034;0.654256
4.970;1.353560;0.657479
4.980;1.313900;0.660111
4.990;1.276297;0.662476
5.000;1.240436;0.665060
5.010;1.205638;0.668341
5.020;1.171070;0.672592
5.030;1.135897;0.677762
5.040;1.099376;0.683468
5.050;1.060929;0.689122
5.060;1.020187;0.694130
5.070;0.977002;0.698075
5.080;0.931391;0.700838
5.090;0.883458;0.702621
5.100;0.833364;0.703864
5.110;0.781374;0.705090
5.120;0.727977;0.706699
5.130;0.673989;0.708807
5.140;0.620546;0.711192
5.150;0.568918;0.713374
5.160;0.520216;0.714806
5.170;0.475123;0.715082
5.180;0.433772;0.714075
5.190;0.395837;0.711962
5.200;0.360748;0.709116
5.210;0.327942;0.705965
5.220;0.297067;0.702833
5.230;0.268083;0.699852
5.240;0.241243;0.696946
5.250;0.216964;0.693903
5.260;0.195637;0.690488
5.270;0.177477;0.686547
5.280;0.162458;0.682059
5.290;0.150391;0.677127
5.300;0.141059;0.671896
5.310;0.134363;0.666456
5.320;0.130371;0.660788
5.330;0.129274;0.654769
5.340;0.131275;0.648258
5.350;0.136491;0.641222
5.360;0.144901;0.633815
5.370;0.156338;0.626367
5.380;0.170492;0.619256
5.390;0.186925;0.612729
5.400;0.205111;0.606762
5.410;0.224516;0.601066
5.420;0.244684;0.595243
5.430;0.265303;0.588996
5.440;0.286226;0.582286
5.450;0.307470;0.575332
5.460;0.329188;0.568491
5.470;0.351606;0.562095
5.480;0.374938;0.556339
5.490;0.399287;0.551265
5.500;0.424579;0.546805
5.510;0.450549;0.542843
5.520;0.476789;0.539291
5.530;0.502840;0.536163
5.540;0.528301;0.533633
5.550;0.552945;0.532004
5.560;0.576786;0.531584
5.570;0.600073;0.532504
5.580;0.623222;0.534599
5.590;0.646725;0.537446
5.600;0.671060;0.540560
5.610;0.696620;0.543671
5.620;0.723646;0.546913
5.630;0.752187;0.550823
5.640;0.782109;0.556134
5.650;0.813147;0.563471
5.660;0.844995;0.573093
5.670;0.877381;0.584767
5.680;0.910094;0.597821
5.690;0.942990;0.611302
5.700;0.975953;0.624176
5.710;1.008865;0.635523
5.720;1.041564;0.644704
5.730;1.073821;0.651520
5.740;1.105363;0.656320
5.750;1.135919;0.660000
5.760;1.165237;0.663815
5.770;1.193031;0.669009
5.780;1.218916;0.676375
5.790;1.242403;0.685959
5.800;1.263031;0.697073
5.810;1.280555;0.708594
5.820;1.295105;0.719403
5.830;1.307213;0.728733
5.840;1.317684;0.736315
5.850;1.327379;0.742280
5.860;1.336978;0.746927
5.870;1.346788;0.750479
5.880;1.356691;0.752966
5.890;1.366223;0.754261
5.900;1.374773;0.754224
5.910;1.381793;0.752836
5.920;1.386934;0.750276
5.930;1.390044;0.746881
5.940;1.391104;0.743027
5.950;1.390159;0.738967
5.960;1.387282;0.734719
5.970;1.382526;0.730048
5.980;1.375872;0.724552
5.990;1.367184;0.717806
6.000;1.356235;0.709485
6.010;1.342815;0.699453
6.020;1.326865;0.687823
6.030;1.308540;0.675023
6.040;1.288178;0.661813
6.050;1.266185;0.649190
6.060;1.242895;0.638150
6.070;1.218455;0.629382
6.080;1.192764;0.623043
6.090;1.165476;0.618709
6.100;1.136092;0.615545
6.110;1.104136;0.612607
6.120;1.069369;0.609152
6.130;1.031927;0.604810
6.140;0.992293;0.599604
6.150;0.951114;0.593850
6.160;0.908960;0.588006
6.170;0.866164;0.582524
6.180;0.822830;0.577722
6.190;0.778993;0.573708
6.200;0.734838;0.570364
6.210;0.690849;0.567394
6.220;0.647798;0.564409
6.230;0.606555;0.561024
6.240;0.567798;0.556961
6.250;0.531756;0.552125
6.260;0.498129;0.546640
6.270;0.466222;0.540768
6.280;0.435188;0.534752
6.290;0.404257;0.528639
6.300;0.372866;0.522234
6.310;0.340689;0.515222
6.320;0.307656;0.507402
6.330;0.273996;0.498885
6.340;0.240279;0.490144
6.350;0.207402;0.481879
6.360;0.176452;0.474761
6.370;0.148475;0.469178
6.380;0.124221;0.465099
6.390;0.103986;0.462115
6.400;0.087578;0.459610
6.410;0.074431;0.456975
6.420;0.063789;0.453809
6.430;0.054901;0.450034
6.440;0.047169;0.445911
6.450;0.040226;0.441923
6.460;0.033968;0.438577
6.470;0.028559;0.436215
6.480;0.024396;0.434936
6.490;0.022046;0.434623
6.500;0.022113;0.435030
6.510;0.025070;0.435865
6.520;0.031127;0.436859
6.530;0.040182;0.437820
6.540;0.051870;0.438662
6.550;0.065699;0.439382
6.560;0.081193;0.439980
6.570;0.098011;0.440344
6.580;0.116003;0.440191
6.590;0.135229;0.439111
6.600;0.155927;0.436711
6.610;0.178439;0.432772
6.620;0.203102;0.427357
6.630;0.230116;0.420827
6.640;0.259466;0.413780
6.650;0.290888;0.406920
6.660;0.323908;0.400890
6.670;0.357901;0.396103
6.680;0.392176;0.392669
6.690;0.426060;0.390430
6.700;0.458996;0.389098
6.710;0.490629;0.388414
6.720;0.520860;0.388241
6.730;0.549847;0.388588
6.740;0.577948;0.389570
6.750;0.605639;0.391345
6.760;0.633394;0.394060
6.770;0.661551;0.397817
6.780;0.690180;0.402649
6.790;0.718977;0.408513
6.800;0.747259;0.415257
6.810;0.774087;0.422603
6.820;0.798500;0.430152
6.830;0.819778;0.437464
6.840;0.837651;0.444163
6.850;0.852358;0.450004
6.860;0.864550;0.454885
6.870;0.875075;0.458822
6.880;0.884742;0.461917
6.890;0.894127;0.464319
6.900;0.903490;0.466167
6.910;0.912788;0.467503
6.920;0.921745;0.468206
6.930;0.929939;0.467996
6.940;0.936882;0.466553
6.950;0.942102;0.463722
6.960;0.945214;0.459685
6.970;0.945971;0.454975
6.980;0.944296;0.450311
6.990;0.940293;0.446330
7.000;0.934237;0.443359
7.010;0.926530;0.441345
7.020;0.917636;0.439942
7.030;0.907995;0.438708
7.040;0.897940;0.437296
7.050;0.887636;0.435539
7.060;0.877087;0.433431
7.070;0.866187;0.431047
7.080;0.854813;0.428478
7.090;0.842879;0.425797
7.100;0.830347;0.423088
7.110;0.817216;0.420452
7.120;0.803542;0.417977
7.130;0.789474;0.415674
7.140;0.775291;0.413440
7.150;0.761375;0.411105
7.160;0.748121;0.408522
7.170;0.735807;0.405658
7.180;0.724474;0.402629
7.190;0.713864;0.399681
7.200;0.703478;0.397130
7.210;0.692737;0.395304
7.220;0.681212;0.394478
7.230;0.668864;0.394833
7.240;0.656182;0.396397
7.250;0.644146;0.399009
7.260;0.633987;0.402319
7.270;0.626831;0.405856
7.280;0.623360;0.409138
7.290;0.623637;0.411799
7.300;0.627133;0.413680
7.310;0.632922;0.414848
7.320;0.639961;0.415532
7.330;0.647364;0.416014
7.340;0.654617;0.416507
7.350;0.661681;0.417076
7.360;0.668961;0.417648
7.370;0.677152;0.418107
7.380;0.686987;0.418431
7.390;0.698975;0.418766
7.400;0.713219;0.419391
7.410;0.729407;0.420606
7.420;0.746946;0.422622
7.430;0.765169;0.425528
7.440;0.783511;0.429316
7.450;0.801602;0.433906
7.460;0.819290;0.439151
7.470;0.836618;0.444813
7.480;0.853807;0.450581
7.490;0.871223;0.456146
7.500;0.889287;0.461324
7.510;0.908320;0.466115
7.520;0.928383;0.470657
7.530;0.949190;0.475071
7.540;0.970133;0.479319
7.550;0.990421;0.483179
7.560;1.009261;0.486368
7.570;1.026021;0.488750
7.580;1.040317;0.490480
7.590;1.051989;0.491972
7.600;1.061022;0.493687
7.610;1.067455;0.495855
7.620;1.071370;0.498313
7.630;1.072927;0.500563
7.640;1.072444;0.502019
7.650;1.070410;0.502296
7.660;1.067424;0.501378
7.670;1.064039;0.499634
7.680;1.060624;0.497704
7.690;1.057314;0.496295
7.700;1.054081;0.495953
7.710;1.050865;0.496878
7.720;1.047646;0.498840
7.730;1.044445;0.501239
7.740;1.041253;0.503293
7.750;1.037963;0.504317
7.760;1.034347;0.503977
7.770;1.030086;0.502407
7.780;1.024836;0.500122
7.790;1.018310;0.497768
7.800;1.010342;0.495825
7.810;1.000926;0.494388
7.820;0.990214;0.493131
7.830;0.978490;0.491460
7.840;0.966112;0.488814
7.850;0.953430;0.484953
7.860;0.940693;0.480068
7.870;0.927967;0.474677
7.880;0.915124;0.469351
7.890;0.901910;0.464436
7.900;0.888058;0.459912
7.910;0.873376;0.455443
7.920;0.857763;0.450570
7.930;0.841160;0.444949
7.940;0.823505;0.438506
7.950;0.804715;0.431461
7.960;0.784727;0.424218
7.970;0.763564;0.417200
7.980;0.741399;0.410715
7.990;0.718590;0.404884
8.000;0.695672;0.399636
8.010;0.673286;0.394743
8.020;0.652071;0.389875
8.030;0.632543;0.384657
8.040;0.615012;0.378769
8.050;0.599533;0.372046
8.060;0.585910;0.364531
8.070;0.573755;0.356449
8.080;0.562605;0.348095
8.090;0.552067;0.339703
8.100;0.541948;0.331336
8.110;0.532292;0.322867
8.120;0.523318;0.314056
8.130;0.515305;0.304687
8.140;0.508479;0.294681
8.150;0.502942;0.284138
8.160;0.498647;0.273292
8.170;0.495410;0.262406
8.180;0.492960;0.251670
8.190;0.491042;0.241157
8.200;0.489520;0.230875
8.210;0.488446;0.220851
8.220;0.488022;0.211157
8.230;0.488488;0.201842
8.240;0.489994;0.192786
8.250;0.492528;0.183633
8.260;0.495936;0.173865
8.270;0.500008;0.163023
8.280;0.504530;0.150970
8.290;0.509293;0.138046
8.300;0.514057;0.125021
8.310;0.518530;0.112857
8.320;0.522402;0.102360
