Time[s];COPx[cm];COPy[cm]
0.010;-1.848423;-0.621744
0.020;-1.850492;-0.632072
0.030;-1.852050;-0.642875
0.040;-1.852833;-0.654371
0.050;-1.852922;-0.666481
0.060;-1.852667;-0.678831
0.070;-1.852493;-0.690842
0.080;-1.852703;-0.701862
0.090;-1.853383;-0.711298
0.100;-1.854405;-0.718691
0.110;-1.855512;-0.723747
0.120;-1.856429;-0.726331
0.130;-1.856950;-0.726452
0.140;-1.856984;-0.724247
0.150;-1.856568;-0.719964
0.160;-1.855845;-0.713945
0.170;-1.855034;-0.706622
0.180;-1.854384;-0.698561
0.190;-1.854124;-0.690506
0.200;-1.854406;-0.683336
0.210;-1.855260;-0.677888
0.220;-1.856558;-0.674686
0.230;-1.858002;-0.673718
0.240;-1.859147;-0.674420
0.250;-1.859452;-0.675907
0.260;-1.858377;-0.677349
0.270;-1.855504;-0.678322
0.280;-1.850700;-0.678971
0.290;-1.844242;-0.679915
0.300;-1.836856;-0.681969
0.310;-1.829573;-0.685801
0.320;-1.823419;-0.691667
0.330;-1.819070;-0.699304
0.340;-1.816593;-0.707973
0.350;-1.815419;-0.716636
0.360;-1.814517;-0.724201
0.370;-1.812718;-0.729808
0.380;-1.809045;-0.733048
0.390;-1.802973;-0.734056
0.400;-1.794519;-0.733437
0.410;-1.784181;-0.732030
0.420;-1.772768;-0.730603
0.430;-1.761210;-0.729596
0.440;-1.750420;-0.729017
0.450;-1.741195;-0.728521
0.460;-1.734131;-0.727643
0.470;-1.729495;-0.726057
0.480;-1.727083;-0.723783
0.490;-1.726188;-0.721216
0.500;-1.725744;-0.718967
0.510;-1.724624;-0.717592
0.520;-1.721999;-0.717370
0.530;-1.717572;-0.718233
0.540;-1.711611;-0.719848
0.550;-1.704784;-0.721751
0.560;-1.697901;-0.723457
0.570;-1.691671;-0.724523
0.580;-1.686558;-0.724610
0.590;-1.682751;-0.723530
0.600;-1.680206;-0.721278
0.610;-1.678700;-0.718007
0.620;-1.677894;-0.713973
0.630;-1.677397;-0.709478
0.640;-1.676843;-0.704831
0.650;-1.675954;-0.700328
0.660;-1.674587;-0.696225
0.670;-1.672756;-0.692682
0.680;-1.670604;-0.689676
0.690;-1.668330;-0.686925
0.700;-1.666092;-0.683883
0.710;-1.663947;-0.679863
0.720;-1.661863;-0.674238
0.730;-1.659788;-0.666635
0.740;-1.657732;-0.657048
0.750;-1.655814;-0.645807
0.760;-1.654249;-0.633429
0.770;-1.653296;-0.620450
0.780;-1.653193;-0.607282
0.790;-1.654127;-0.594173
0.800;-1.656231;-0.581227
0.810;-1.659590;-0.568467
0.820;-1.664237;-0.555892
0.830;-1.670117;-0.543471
0.840;-1.677043;-0.531097
0.850;-1.684651;-0.518534
0.860;-1.692380;-0.505444
0.870;-1.699534;-0.491495
0.880;-1.705420;-0.476500
0.890;-1.709564;-0.460492
0.900;-1.711905;-0.443720
0.910;-1.712878;-0.426578
0.920;-1.713327;-0.409541
0.930;-1.714257;-0.393099
0.940;-1.716509;-0.377708
0.950;-1.720447;-0.363735
0.960;-1.725769;-0.351421
0.970;-1.731544;-0.340858
0.980;-1.736485;-0.331984
0.990;-1.739400;-0.324586
1.000;-1.739628;-0.318332
1.010;-1.737291;-0.312842
1.020;-1.733228;-0.307792
1.030;-1.728648;-0.303014
1.040;-1.724656;-0.298517
1.050;-1.721856;-0.294425
1.060;-1.720185;-0.290845
1.070;-1.719027;-0.287745
1.080;-1.717533;-0.284911
1.090;-1.714991;-0.281990
1.100;-1.711081;-0.278620
1.110;-1.705933;-0.274554
1.120;-1.699999;-0.269711
1.130;-1.693830;-0.264122
1.140;-1.687878;-0.257846
1.150;-1.682398;-0.250930
1.160;-1.677449;-0.243433
1.170;-1.672967;-0.235456
1.180;-1.668833;-0.227126
1.190;-1.664914;-0.218530
1.200;-1.661049;-0.209643
1.210;-1.657015;-0.200321
1.220;-1.652495;-0.190361
1.230;-1.647069;-0.179634
1.240;-1.640245;-0.168226
1.250;-1.631546;-0.156542
1.260;-1.620660;-0.145286
1.270;-1.607628;-0.135307
1.280;-1.592961;-0.127328
1.290;-1.577611;-0.121672
1.300;-1.562752;-0.118114
1.310;-1.549463;-0.115943
1.320;-1.538451;-0.114191
1.330;-1.529928;-0.111926
1.340;-1.523669;-0.108500
1.350;-1.519166;-0.103695
1.360;-1.515787;-0.097741
1.370;-1.512875;-0.091210
1.380;-1.509821;-0.084813
1.390;-1.506130;-0.079223
1.400;-1.501506;-0.074948
1.410;-1.495936;-0.072292
1.420;-1.489707;-0.071374
1.430;-1.483348;-0.072188
1.440;-1.477480;-0.074694
1.450;-1.472629;-0.078926
1.460;-1.469078;-0.085024
1.470;-1.466807;-0.093169
1.480;-1.465534;-0.103434
1.490;-1.464824;-0.115650
1.500;-1.464223;-0.129364
1.510;-1.463383;-0.143930
1.520;-1.462132;-0.158680
1.530;-1.460472;-0.173104
1.540;-1.458529;-0.186959
1.550;-1.456491;-0.200283
1.560;-1.454563;-0.213317
1.570;-1.452943;-0.226352
1.580;-1.451796;-0.239537
1.590;-1.451240;-0.252721
1.600;-1.451332;-0.265400
1.610;-1.452051;-0.276847
1.620;-1.453259;-0.286356
1.630;-1.454675;-0.293530
1.640;-1.455876;-0.298439
1.650;-1.456357;-0.301616
1.660;-1.455634;-0.303869
1.670;-1.453383;-0.305999
1.680;-1.449550;-0.308553
1.690;-1.444393;-0.311711
1.700;-1.438418;-0.315340
1.710;-1.432220;-0.319139
1.720;-1.426277;-0.322783
1.730;-1.420799;-0.326027
1.740;-1.415707;-0.328737
1.750;-1.410770;-0.330905
1.760;-1.405809;-0.332629
1.770;-1.400866;-0.334054
1.780;-1.396243;-0.335261
1.790;-1.392390;-0.336164
1.800;-1.389726;-0.336502
1.810;-1.388462;-0.335944
1.820;-1.388503;-0.334273
1.830;-1.389428;-0.331530
1.840;-1.390580;-0.328049
1.850;-1.391249;-0.324378
1.860;-1.390885;-0.321123
1.870;-1.389280;-0.318820
1.880;-1.386626;-0.317836
1.890;-1.383458;-0.318321
1.900;-1.380488;-0.320186
1.910;-1.378385;-0.323136
1.920;-1.377575;-0.326788
1.930;-1.378128;-0.330863
1.940;-1.379758;-0.335321
1.950;-1.381934;-0.340359
1.960;-1.384035;-0.346258
1.970;-1.385496;-0.353177
1.980;-1.385923;-0.361024
1.990;-1.385185;-0.369482
2.000;-1.383455;-0.378135
2.010;-1.381187;-0.386611
2.020;-1.379002;-0.394642
2.030;-1.377522;-0.402022
2.040;-1.377201;-0.408524
2.050;-1.378200;-0.413890
2.060;-1.380344;-0.417921
2.070;-1.383157;-0.420621
2.080;-1.385992;-0.422259
2.090;-1.388206;-0.423334
2.100;-1.389307;-0.424443
2.110;-1.389004;-0.426163
2.120;-1.387175;-0.428959
2.130;-1.383831;-0.433133
2.140;-1.379123;-0.438816
2.150;-1.373402;-0.445980
2.160;-1.367246;-0.454481
2.170;-1.361410;-0.464111
2.180;-1.356697;-0.474623
2.190;-1.353782;-0.485727
2.200;-1.353072;-0.497061
2.210;-1.354633;-0.508155
2.220;-1.358195;-0.518457
2.230;-1.363240;-0.527437
2.240;-1.369110;-0.534754
2.250;-1.375133;-0.540386
2.260;-1.380740;-0.544612
2.270;-1.385544;-0.547833
2.280;-1.389377;-0.550360
2.290;-1.392263;-0.552278
2.300;-1.394357;-0.553456
2.310;-1.395903;-0.553664
2.320;-1.397213;-0.552727
2.330;-1.398666;-0.550646
2.340;-1.400687;-0.547662
2.350;-1.403650;-0.544218
2.360;-1.407742;-0.540844
2.370;-1.412808;-0.538002
2.380;-1.418280;-0.535936
2.390;-1.423275;-0.534593
2.400;-1.426863;-0.533632
2.410;-1.428408;-0.532547
2.420;-1.427823;-0.530847
2.430;-1.425615;-0.528218
2.440;-1.422724;-0.524602
2.450;-1.420227;-0.520187
2.460;-1.419012;-0.515330
2.470;-1.419516;-0.510453
2.480;-1.421612;-0.505931
2.490;-1.424713;-0.501982
2.500;-1.428045;-0.498620
2.510;-1.430980;-0.495679
2.520;-1.433253;-0.492913
2.530;-1.434979;-0.490123
2.540;-1.436513;-0.487241
2.550;-1.438260;-0.484331
2.560;-1.440538;-0.481522
2.570;-1.443528;-0.478915
2.580;-1.447255;-0.476552
2.590;-1.451586;-0.474441
2.600;-1.456228;-0.472622
2.610;-1.460768;-0.471168
2.620;-1.464790;-0.470111
2.630;-1.468013;-0.469346
2.640;-1.470395;-0.468598
2.650;-1.472111;-0.467517
2.660;-1.473408;-0.465815
2.670;-1.474434;-0.463372
2.680;-1.475127;-0.460246
2.690;-1.475236;-0.456601
2.700;-1.474456;-0.452625
2.710;-1.472599;-0.448464
2.720;-1.469712;-0.444210
2.730;-1.466090;-0.439939
2.740;-1.462210;-0.435793
2.750;-1.458614;-0.432021
2.760;-1.455804;-0.428939
2.770;-1.454147;-0.426780
2.780;-1.453806;-0.425538
2.790;-1.454725;-0.424925
2.800;-1.456650;-0.424492
2.810;-1.459209;-0.423824
2.820;-1.461975;-0.422662
2.830;-1.464524;-0.420909
2.840;-1.466436;-0.418573
2.850;-1.467302;-0.415738
2.860;-1.466744;-0.412596
2.870;-1.464464;-0.409477
2.880;-1.460285;-0.406819
2.890;-1.454178;-0.405063
2.900;-1.446278;-0.404509
2.910;-1.436912;-0.405204
2.920;-1.426652;-0.406907
2.930;-1.416330;-0.409158
2.940;-1.406925;-0.411413
2.950;-1.399335;-0.413202
2.960;-1.394100;-0.414252
2.970;-1.391211;-0.414580
2.980;-1.390091;-0.414515
2.990;-1.389764;-0.414658
3.000;-1.389121;-0.415735
3.010;-1.387193;-0.418381
3.020;-1.383361;-0.422910
3.030;-1.377476;-0.429173
3.040;-1.369884;-0.436587
3.050;-1.361353;-0.444325
3.060;-1.352886;-0.451598
3.070;-1.345461;-0.457899
3.080;-1.339769;-0.463113
3.090;-1.336049;-0.467474
3.100;-1.334076;-0.471417
3.110;-1.333313;-0.475402
3.120;-1.333138;-0.479760
3.130;-1.333061;-0.484618
3.140;-1.332859;-0.489911
3.150;-1.332584;-0.495466
3.160;-1.332453;-0.501111
3.170;-1.332664;-0.506776
3.180;-1.333244;-0.512548
3.190;-1.334012;-0.518673
3.200;-1.334689;-0.525469
3.210;-1.335096;-0.533197
3.220;-1.335308;-0.541914
3.230;-1.335686;-0.551403
3.240;-1.336747;-0.561210
3.250;-1.338970;-0.570766
3.260;-1.342607;-0.579539
3.270;-1.347608;-0.587133
3.280;-1.353642;-0.593338
3.290;-1.360191;-0.598157
3.300;-1.366659;-0.601815
3.310;-1.372486;-0.604723
3.320;-1.377260;-0.607382
3.330;-1.380806;-0.610277
3.340;-1.383221;-0.613821
3.350;-1.384832;-0.618367
3.360;-1.386094;-0.624227
3.370;-1.387462;-0.631640
3.380;-1.389279;-0.640695
3.390;-1.391690;-0.651255
3.400;-1.394618;-0.662939
3.410;-1.397810;-0.675164
3.420;-1.400971;-0.687263
3.430;-1.403923;-0.698644
3.440;-1.406711;-0.708965
3.450;-1.409596;-0.718230
3.460;-1.412938;-0.726735
3.470;-1.417067;-0.734883
3.480;-1.422172;-0.742982
3.490;-1.428243;-0.751124
3.500;-1.435061;-0.759210
3.510;-1.442231;-0.767099
3.520;-1.449272;-0.774763
3.530;-1.455772;-0.782355
3.540;-1.461511;-0.790112
3.550;-1.466505;-0.798148
3.560;-1.470945;-0.806281
3.570;-1.475078;-0.814026
3.580;-1.479083;-0.820797
3.590;-1.482976;-0.826204
3.600;-1.486568;-0.830277
3.610;-1.489520;-0.833516
3.620;-1.491512;-0.836735
3.630;-1.492413;-0.840770
3.640;-1.492382;-0.846162
3.650;-1.491804;-0.852927
3.660;-1.491111;-0.860504
3.670;-1.490563;-0.867871
3.680;-1.490102;-0.873827
3.690;-1.489332;-0.877326
3.700;-1.487609;-0.877768
3.710;-1.484214;-0.875153
3.720;-1.478557;-0.870045
3.730;-1.470405;-0.863386
3.740;-1.460049;-0.856228
3.750;-1.448357;-0.849457
3.760;-1.436635;-0.843587
3.770;-1.426314;-0.838632
3.780;-1.418574;-0.834131
3.790;-1.414049;-0.829320
3.800;-1.412724;-0.823424
3.810;-1.414056;-0.815951
3.820;-1.417234;-0.806862
3.830;-1.421452;-0.796554
3.840;-1.426095;-0.785683
3.850;-1.430801;-0.774913
3.860;-1.435406;-0.764705
3.870;-1.439844;-0.755226
3.880;-1.444033;-0.746401
3.890;-1.447829;-0.738069
3.900;-1.451037;-0.730152
3.910;-1.453492;-0.722726
3.920;-1.455136;-0.715991
3.930;-1.456051;-0.710178
3.940;-1.456424;-0.705463
3.950;-1.456489;-0.701933
3.960;-1.456502;-0.699571
3.970;-1.456742;-0.698272
3.980;-1.457494;-0.697863
3.990;-1.459012;-0.698139
4.000;-1.461459;-0.698884
4.010;-1.464860;-0.699862
4.020;-1.469076;-0.700793
4.030;-1.473801;-0.701347
4.040;-1.478618;-0.701199
4.050;-1.483104;-0.700128
4.060;-1.486974;-0.698107
4.070;-1.490204;-0.695336
4.080;-1.493053;-0.692174
4.090;-1.495971;-0.689033
4.100;-1.499413;-0.686255
4.110;-1.503680;-0.684054
4.120;-1.508846;-0.682519
4.130;-1.514802;-0.681677
4.140;-1.521360;-0.681578
4.150;-1.528349;-0.682317
4.160;-1.535644;-0.683965
4.170;-1.543127;-0.686452
4.180;-1.550626;-0.689494
4.190;-1.557877;-0.692644
4.200;-1.564553;-0.695437
4.210;-1.570354;-0.697546
4.220;-1.575108;-0.698825
4.230;-1.578839;-0.699252
4.240;-1.581767;-0.698806
4.250;-1.584244;-0.697373
4.260;-1.586664;-0.694748
4.270;-1.589384;-0.690736
4.280;-1.592689;-0.685277
4.290;-1.596790;-0.678549
4.300;-1.601802;-0.670976
4.310;-1.607689;-0.663136
4.320;-1.614196;-0.655604
4.330;-1.620844;-0.648783
4.340;-1.627017;-0.642796
4.350;-1.632137;-0.637476
4.360;-1.635846;-0.632432
4.370;-1.638121;-0.627138
4.380;-1.639288;-0.621013
4.390;-1.639936;-0.613483
4.400;-1.640772;-0.604073
4.410;-1.642483;-0.592521
4.420;-1.645642;-0.578904
4.430;-1.650670;-0.563727
4.440;-1.657832;-0.547883
4.450;-1.667226;-0.532492
4.460;-1.678726;-0.518662
4.470;-1.691935;-0.507255
4.480;-1.706200;-0.498713
4.490;-1.720735;-0.492990
4.500;-1.734828;-0.489629
4.510;-1.748046;-0.487967
4.520;-1.760339;-0.487401
4.530;-1.771991;-0.487562
4.540;-1.783408;-0.488328
4.550;-1.794871;-0.489727
4.560;-1.806340;-0.491809
4.570;-1.817414;-0.494596
4.580;-1.827420;-0.498059
4.590;-1.835616;-0.502119
4.600;-1.841387;-0.506617
4.610;-1.844396;-0.511345
4.620;-1.844660;-0.516108
4.630;-1.842586;-0.520816
4.640;-1.838953;-0.525509
4.650;-1.834808;-0.530299
4.660;-1.831250;-0.535273
4.670;-1.829131;-0.540400
4.680;-1.828770;-0.545512
4.690;-1.829832;-0.550350
4.700;-1.831434;-0.554659
4.710;-1.832430;-0.558263
4.720;-1.831780;-0.561114
4.730;-1.828838;-0.563312
4.740;-1.823490;-0.565086
4.750;-1.816120;-0.566773
4.760;-1.807445;-0.568767
4.770;-1.798299;-0.571445
4.780;-1.789442;-0.575058
4.790;-1.781424;-0.579596
4.800;-1.774529;-0.584728
4.810;-1.768775;-0.589875
4.820;-1.763966;-0.594407
4.830;-1.759765;-0.597865
4.840;-1.755762;-0.600088
4.850;-1.751517;-0.601201
4.860;-1.746595;-0.601486
4.870;-1.740612;-0.601205
4.880;-1.733307;-0.600456
4.890;-1.724619;-0.599125
4.900;-1.714720;-0.596945
4.910;-1.704009;-0.593624
4.920;-1.693066;-0.588967
4.930;-1.682593;-0.582944
4.940;-1.673365;-0.575722
4.950;-1.666162;-0.567673
4.960;-1.661638;-0.559339
4.970;-1.660143;-0.551342
4.980;-1.661543;-0.544250
4.990;-1.665140;-0.538419
5.000;-1.669779;-0.533904
5.010;-1.674129;-0.530477
5.020;-1.677034;-0.527743
5.030;-1.677807;-0.525314
5.040;-1.676336;-0.522957
5.050;-1.673022;-0.520658
5.060;-1.668585;-0.518592
5.070;-1.663828;-0.516999
5.080;-1.659435;-0.516055
5.090;-1.655826;-0.515790
5.100;-1.653083;-0.516087
5.110;-1.650947;-0.516749
5.120;-1.648913;-0.517574
5.130;-1.646396;-0.518421
5.140;-1.642953;-0.519235
5.150;-1.638439;-0.520041
5.160;-1.633021;-0.520897
5.170;-1.627068;-0.521828
5.180;-1.620993;-0.522797
5.190;-1.615137;-0.523716
5.200;-1.609747;-0.524491
5.210;-1.604977;-0.525065
5.220;-1.600877;-0.525416
5.230;-1.597368;-0.525527
5.240;-1.594239;-0.525347
5.250;-1.591216;-0.524781
5.260;-1.588078;-0.523717
5.270;-1.584756;-0.522043
5.280;-1.581366;-0.519645
5.290;-1.578146;-0.516384
5.300;-1.575338;-0.512099
5.310;-1.573053;-0.506644
5.320;-1.571178;-0.499949
5.330;-1.569359;-0.492094
5.340;-1.567108;-0.483367
5.350;-1.563975;-0.474283
5.360;-1.559742;-0.465548
5.370;-1.554523;-0.457927
5.380;-1.548743;-0.452072
5.390;-1.542996;-0.448352
5.400;-1.537846;-0.446767
5.410;-1.533663;-0.446957
5.420;-1.530532;-0.448298
5.430;-1.528244;-0.450021
5.440;-1.526356;-0.451333
5.450;-1.524313;-0.451565
5.460;-1.521616;-0.450318
5.470;-1.518009;-0.447587
5.480;-1.513621;-0.443759
5.490;-1.508979;-0.439446
5.500;-1.504864;-0.435238
5.510;-1.502053;-0.431480
5.520;-1.501045;-0.428205
5.530;-1.501890;-0.425207
5.540;-1.504169;-0.422184
5.550;-1.507144;-0.418842
5.560;-1.509998;-0.414930
5.570;-1.512087;-0.410235
5.580;-1.513082;-0.404572
5.590;-1.513001;-0.397824
5.600;-1.512142;-0.390008
5.610;-1.510950;-0.381337
5.620;-1.509860;-0.372220
5.630;-1.509173;-0.363176
5.640;-1.509001;-0.354689
5.650;-1.509306;-0.347076
5.660;-1.509986;-0.340435
5.670;-1.510969;-0.334698
5.680;-1.512258;-0.329740
5.690;-1.513920;-0.325473
5.700;-1.516025;-0.321863
5.710;-1.518589;-0.318879
5.720;-1.521534;-0.316403
5.730;-1.524711;-0.314220
5.740;-1.527941;-0.312085
5.750;-1.531052;-0.309855
5.760;-1.533878;-0.307565
5.770;-1.536247;-0.305412
5.780;-1.537983;-0.303653
5.790;-1.538952;-0.302487
5.800;-1.539128;-0.301964
5.810;-1.538664;-0.301960
5.820;-1.537874;-0.302207
5.830;-1.537129;-0.302371
5.840;-1.536704;-0.302111
5.850;-1.536661;-0.301129
5.860;-1.536840;-0.299192
5.870;-1.536959;-0.296152
5.880;-1.536731;-0.291979
5.890;-1.535950;-0.286768
5.900;-1.534495;-0.280722
5.910;-1.532294;-0.274106
5.920;-1.529310;-0.267223
5.930;-1.525572;-0.260455
5.940;-1.521222;-0.254302
5.950;-1.516537;-0.249384
5.960;-1.511884;-0.246297
5.970;-1.507620;-0.245391
5.980;-1.503979;-0.246545
5.990;-1.501011;-0.249123
6.000;-1.498578;-0.252155
6.010;-1.496393;-0.254705
6.020;-1.494094;-0.256220
6.030;-1.491338;-0.256676
6.040;-1.487926;-0.256479
6.050;-1.483900;-0.256185
6.060;-1.479581;-0.256207
6.070;-1.475474;-0.256648
6.080;-1.472088;-0.257292
6.090;-1.469727;-0.257719
6.100;-1.468348;-0.257486
6.110;-1.467556;-0.256308
6.120;-1.466743;-0.254173
6.130;-1.465321;-0.251372
6.140;-1.462954;-0.248425
6.150;-1.459682;-0.245965
6.160;-1.455881;-0.244603
6.170;-1.452096;-0.244821
6.180;-1.448820;-0.246867
6.190;-1.446323;-0.250661
6.200;-1.444610;-0.255745
6.210;-1.443495;-0.261326
6.220;-1.442711;-0.266440
6.230;-1.441996;-0.270227
6.240;-1.441124;-0.272190
6.250;-1.439909;-0.272337
6.260;-1.438241;-0.271127
6.270;-1.436136;-0.269285
6.280;-1.433767;-0.267543
6.290;-1.431424;-0.266441
6.300;-1.429410;-0.266221
6.310;-1.427926;-0.266823
6.320;-1.427011;-0.267966
6.330;-1.426545;-0.269265
6.340;-1.426303;-0.270370
6.350;-1.426009;-0.271053
6.360;-1.425408;-0.271248
6.370;-1.424339;-0.271013
6.380;-1.422788;-0.270457
6.390;-1.420892;-0.269675
6.400;-1.418883;-0.268738
6.410;-1.417005;-0.267750
6.420;-1.415460;-0.266929
6.430;-1.414378;-0.266615
6.440;-1.413805;-0.267179
6.450;-1.413692;-0.268883
6.460;-1.413882;-0.271785
6.470;-1.414113;-0.275737
6.480;-1.414029;-0.280476
6.490;-1.413226;-0.285744
6.500;-1.411317;-0.291401
6.510;-1.408015;-0.297495
6.520;-1.403234;-0.304243
6.530;-1.397159;-0.311940
6.540;-1.390277;-0.320778
6.550;-1.383338;-0.330626
6.560;-1.377240;-0.340888
6.570;-1.372851;-0.350523
6.580;-1.370789;-0.358282
6.590;-1.371240;-0.363098
6.600;-1.373895;-0.364427
6.610;-1.378023;-0.362411
6.620;-1.382671;-0.357768
6.630;-1.386913;-0.351492
6.640;-1.390060;-0.344542
6.650;-1.391774;-0.337638
6.660;-1.392074;-0.331224
6.670;-1.391283;-0.325517
6.680;-1.389951;-0.320576
6.690;-1.388758;-0.316353
6.700;-1.388370;-0.312714
6.710;-1.389254;-0.309474
6.720;-1.391511;-0.306410
6.730;-1.394825;-0.303297
6.740;-1.398563;-0.299958
6.750;-1.401986;-0.296313
6.760;-1.404501;-0.292399
6.770;-1.405843;-0.288341
6.780;-1.406127;-0.284319
6.790;-1.405758;-0.280549
6.800;-1.405236;-0.277284
6.810;-1.404964;-0.274788
6.820;-1.405138;-0.273258
6.830;-1.405764;-0.272718
6.840;-1.406770;-0.272972
6.850;-1.408125;-0.273645
6.860;-1.409914;-0.274330
6.870;-1.412316;-0.274781
6.880;-1.415508;-0.275053
6.890;-1.419555;-0.275507
6.900;-1.424355;-0.276633
6.910;-1.429651;-0.278797
6.920;-1.435089;-0.282046
6.930;-1.440285;-0.286061
6.940;-1.444905;-0.290272
6.950;-1.448770;-0.294081
6.960;-1.451958;-0.297085
6.970;-1.454823;-0.299237
6.980;-1.457880;-0.300863
6.990;-1.461630;-0.302548
7.000;-1.466395;-0.304935
7.010;-1.472250;-0.308528
7.020;-1.479036;-0.313568
7.030;-1.486439;-0.320002
7.040;-1.494083;-0.327531
7.050;-1.501622;-0.335719
7.060;-1.508807;-0.344116
7.070;-1.515521;-0.352344
7.080;-1.521797;-0.360113
7.090;-1.527804;-0.367176
7.100;-1.533784;-0.373283
7.110;-1.539963;-0.378183
7.120;-1.546448;-0.381703
7.130;-1.553177;-0.383840
7.140;-1.559937;-0.384805
7.150;-1.566450;-0.384982
7.160;-1.572497;-0.384815
7.170;-1.577997;-0.384703
7.180;-1.583034;-0.384939
7.190;-1.587808;-0.385736
7.200;-1.592549;-0.387270
7.210;-1.597434;-0.389693
7.220;-1.602530;-0.393077
7.230;-1.607778;-0.397313
7.240;-1.613033;-0.402052
7.250;-1.618138;-0.406737
7.260;-1.622996;-0.410766
7.270;-1.627588;-0.413707
7.280;-1.631925;-0.415485
7.290;-1.635974;-0.416428
7.300;-1.639635;-0.417150
7.310;-1.642770;-0.418306
7.320;-1.645291;-0.420339
7.330;-1.647237;-0.423284
7.340;-1.648807;-0.426730
7.350;-1.650333;-0.429944
7.360;-1.652193;-0.432124
7.370;-1.654681;-0.432671
7.380;-1.657888;-0.431386
7.390;-1.661621;-0.428492
7.400;-1.665424;-0.424492
7.410;-1.668691;-0.419951
7.420;-1.670840;-0.415324
7.430;-1.671507;-0.410891
7.440;-1.670687;-0.406810
7.450;-1.668806;-0.403208
7.460;-1.666644;-0.400235
7.470;-1.665124;-0.398052
7.480;-1.664994;-0.396781
7.490;-1.666550;-0.396482
7.500;-1.669525;-0.397177
7.510;-1.673196;-0.398885
7.520;-1.676666;-0.401600
7.530;-1.679174;-0.405214
7.540;-1.680296;-0.409442
7.550;-1.679986;-0.413833
7.560;-1.678489;-0.417866
7.570;-1.676206;-0.421100
7.580;-1.673590;-0.423316
7.590;-1.671097;-0.424597
7.600;-1.669174;-0.425326
7.610;-1.668233;-0.426039
7.620;-1.668585;-0.427215
7.630;-1.670332;-0.429078
7.640;-1.673279;-0.431530
7.650;-1.676905;-0.434221
7.660;-1.680432;-0.436693
7.670;-1.682981;-0.438531
7.680;-1.683789;-0.439459
