Time[s];COPx[cm];COPy[cm]
0.010;0.804552;-0.898896
0.020;0.803576;-0.948166
0.030;0.800836;-0.996872
0.040;0.794867;-1.045072
0.050;0.784542;-1.093899
0.060;0.769175;-1.145572
0.070;0.748467;-1.203006
0.080;0.722301;-1.269099
0.090;0.690464;-1.345907
0.100;0.652442;-1.433972
0.110;0.607492;-1.532037
0.120;0.555019;-1.637189
0.130;0.495135;-1.745277
0.140;0.429165;-1.851435
0.150;0.359790;-1.950627
0.160;0.290690;-2.038287
0.170;0.225735;-2.111047
0.180;0.168026;-2.167409
0.190;0.119215;-2.208068
0.200;0.079370;-2.235659
0.210;0.047384;-2.253985
0.220;0.021621;-2.266996
0.230;0.000467;-2.277925
0.240;-0.017414;-2.288852
0.250;-0.033113;-2.300756
0.260;-0.047692;-2.313885
0.270;-0.062396;-2.328185
0.280;-0.078767;-2.343572
0.290;-0.098578;-2.359932
0.300;-0.123610;-2.376941
0.310;-0.155309;-2.393823
0.320;-0.194362;-2.409270
0.330;-0.240280;-2.421645
0.340;-0.291151;-2.429481
0.350;-0.343768;-2.432104
0.360;-0.394257;-2.430048
0.370;-0.439052;-2.424996
0.380;-0.475823;-2.419201
0.390;-0.503932;-2.414645
0.400;-0.524223;-2.412340
0.410;-0.538286;-2.412113
0.420;-0.547561;-2.412939
0.430;-0.552671;-2.413630
0.440;-0.553245;-2.413505
0.450;-0.548260;-2.412741
0.460;-0.536710;-2.412315
0.470;-0.518304;-2.413595
0.480;-0.493898;-2.417798
0.490;-0.465520;-2.425488
0.500;-0.436052;-2.436325
0.510;-0.408685;-2.449140
0.520;-0.386328;-2.462358
0.530;-0.371083;-2.474590
0.540;-0.363861;-2.485132
0.550;-0.364211;-2.494162
0.560;-0.370425;-2.502553
0.570;-0.379929;-2.511417
0.580;-0.389867;-2.521568
0.590;-0.397700;-2.533092
0.600;-0.401620;-2.545166
0.610;-0.400667;-2.556135
0.620;-0.394580;-2.563801
0.630;-0.383513;-2.565856
0.640;-0.367796;-2.560394
0.650;-0.347854;-2.546361
0.660;-0.324325;-2.523801
0.670;-0.298278;-2.493807
0.680;-0.271339;-2.458225
0.690;-0.245591;-2.419225
0.700;-0.223194;-2.378875
0.710;-0.205873;-2.338825
0.720;-0.194482;-2.300147
0.730;-0.188870;-2.263394
0.740;-0.188142;-2.228821
0.750;-0.191233;-2.196687
0.760;-0.197585;-2.167491
0.770;-0.207647;-2.142009
0.780;-0.223007;-2.121097
0.790;-0.246119;-2.105335
0.800;-0.279704;-2.094661
0.810;-0.326036;-2.088177
0.820;-0.386257;-2.084246
0.830;-0.459870;-2.080972
0.840;-0.544503;-2.076947
0.850;-0.635998;-2.072031
0.860;-0.728889;-2.067741
0.870;-0.817208;-2.066979
0.880;-0.895477;-2.073068
0.890;-0.959656;-2.088458
0.900;-1.007765;-2.113666
0.910;-1.039989;-2.146904
0.920;-1.058275;-2.184507
0.930;-1.065590;-2.221909
0.940;-1.065158;-2.254767
0.950;-1.059934;-2.279850
0.960;-1.052434;-2.295544
0.970;-1.044825;-2.301931
0.980;-1.039033;-2.300547
0.990;-1.036694;-2.293893
1.000;-1.038888;-2.284832
1.010;-1.045848;-2.276006
1.020;-1.056856;-2.269391
1.030;-1.070498;-2.266091
1.040;-1.085251;-2.266360
1.050;-1.100188;-2.269800
1.060;-1.115491;-2.275634
1.070;-1.132519;-2.282966
1.080;-1.153367;-2.290951
1.090;-1.180023;-2.298892
1.100;-1.213403;-2.306347
1.110;-1.252567;-2.313263
1.120;-1.294371;-2.320089
1.130;-1.333754;-2.327725
1.140;-1.364639;-2.337245
1.150;-1.381245;-2.349468
1.160;-1.379428;-2.364593
1.170;-1.357628;-2.382069
1.180;-1.317185;-2.400779
1.190;-1.262007;-2.419446
1.200;-1.197752;-2.437071
1.210;-1.130782;-2.453253
1.220;-1.067060;-2.468308
1.230;-1.011212;-2.483176
1.240;-0.965878;-2.499191
1.250;-0.931518;-2.517767
1.260;-0.906744;-2.540059
1.270;-0.889112;-2.566708
1.280;-0.876161;-2.597745
1.290;-0.866300;-2.632744
1.300;-0.859176;-2.671139
1.310;-0.855381;-2.712569
1.320;-0.855666;-2.757017
1.330;-0.860117;-2.804637
1.340;-0.867701;-2.855358
1.350;-0.876368;-2.908536
1.360;-0.883578;-2.962947
1.370;-0.886946;-3.017161
1.380;-0.884692;-3.070073
1.390;-0.875755;-3.121292
1.400;-0.859640;-3.171175
1.410;-0.836183;-3.220527
1.420;-0.805416;-3.270153
1.430;-0.767614;-3.320491
1.440;-0.723438;-3.371508
1.450;-0.674060;-3.422872
1.460;-0.621146;-3.474270
1.470;-0.566717;-3.525694
1.480;-0.512945;-3.577524
1.490;-0.461956;-3.630358
1.500;-0.415662;-3.684651
1.510;-0.375652;-3.740328
1.520;-0.343125;-3.796624
1.530;-0.318898;-3.852260
1.540;-0.303438;-3.905951
1.550;-0.296906;-3.957023
1.560;-0.299150;-4.005820
1.570;-0.309651;-4.053654
1.580;-0.327402;-4.102291
1.590;-0.350804;-4.153185
1.600;-0.377672;-4.206818
1.610;-0.405450;-4.262434
1.620;-0.431602;-4.318270
1.630;-0.454028;-4.372174
1.640;-0.471339;-4.422390
1.650;-0.482910;-4.468190
1.660;-0.488760;-4.510123
1.670;-0.489385;-4.549729
1.680;-0.485621;-4.588832
1.690;-0.478578;-4.628671
1.700;-0.469566;-4.669179
1.710;-0.460001;-4.708713
1.720;-0.451206;-4.744343
1.730;-0.444173;-4.772666
1.740;-0.439335;-4.790868
1.750;-0.436500;-4.797693
1.760;-0.434968;-4.793947
1.770;-0.433799;-4.782281
1.780;-0.432089;-4.766303
1.790;-0.429147;-4.749328
1.800;-0.424555;-4.733280
1.810;-0.418197;-4.718148
1.820;-0.410344;-4.702157
1.830;-0.401739;-4.682498
1.840;-0.393562;-4.656328
1.850;-0.387145;-4.621652
1.860;-0.383462;-4.577835
1.870;-0.382619;-4.525609
1.880;-0.383595;-4.466644
1.890;-0.384409;-4.402877
1.900;-0.382668;-4.335888
1.910;-0.376289;-4.266585
1.920;-0.364156;-4.195334
1.930;-0.346497;-4.122430
1.940;-0.324852;-4.048613
1.950;-0.301613;-3.975306
1.960;-0.279274;-3.904402
1.970;-0.259666;-3.837749
1.980;-0.243465;-3.776564
1.990;-0.230178;-3.721095
2.000;-0.218597;-3.670658
2.010;-0.207521;-3.624068
2.020;-0.196485;-3.580264
2.030;-0.186184;-3.538862
2.040;-0.178440;-3.500334
2.050;-0.175711;-3.465726
2.060;-0.180329;-3.436046
2.070;-0.193782;-3.411610
2.080;-0.216317;-3.391638
2.090;-0.247006;-3.374282
2.100;-0.284231;-3.357101
2.110;-0.326345;-3.337819
2.120;-0.372230;-3.315070
2.130;-0.421516;-3.288809
2.140;-0.474367;-3.260180
2.150;-0.530963;-3.230927
2.160;-0.590932;-3.202645
2.170;-0.652989;-3.176231
2.180;-0.714972;-3.151752
2.190;-0.774270;-3.128732
2.200;-0.828508;-3.106601
2.210;-0.876241;-3.085023
2.220;-0.917387;-3.063896
2.230;-0.953234;-3.043090
2.240;-0.986047;-3.022116
2.250;-1.018422;-3.000018
2.260;-1.052645;-2.975571
2.270;-1.090238;-2.947692
2.280;-1.131785;-2.915805
2.290;-1.177002;-2.879958
2.300;-1.224999;-2.840636
2.310;-1.274614;-2.798378
2.320;-1.324706;-2.753430
2.330;-1.374308;-2.705598
2.340;-1.422631;-2.654358
2.350;-1.468936;-2.599128
2.360;-1.512404;-2.539543
2.370;-1.552087;-2.475651
2.380;-1.587061;-2.407963
2.390;-1.616758;-2.337417
2.400;-1.641353;-2.265272
2.410;-1.661993;-2.192983
2.420;-1.680689;-2.122049
2.430;-1.699841;-2.053864
2.440;-1.721566;-1.989561
2.450;-1.747065;-1.929867
2.460;-1.776265;-1.874957
2.470;-1.807855;-1.824341
2.480;-1.839685;-1.776844
2.490;-1.869391;-1.730768
2.500;-1.895024;-1.684242
2.510;-1.915496;-1.635645
2.520;-1.930758;-1.583962
2.530;-1.941702;-1.528906
2.540;-1.949863;-1.470772
2.550;-1.956984;-1.410095
2.560;-1.964529;-1.347280
2.570;-1.973288;-1.282416
2.580;-1.983193;-1.215362
2.590;-1.993427;-1.146099
2.600;-2.002738;-1.075112
2.610;-2.009808;-1.003612
2.620;-2.013535;-0.933403
2.630;-2.013165;-0.866419
2.640;-2.008316;-0.804111
2.650;-1.998923;-0.746927
2.660;-1.985194;-0.694146
2.670;-1.967611;-0.644101
2.680;-1.946958;-0.594722
2.690;-1.924339;-0.544207
2.700;-1.901061;-0.491592
2.710;-1.878378;-0.437043
2.720;-1.857109;-0.381794
2.730;-1.837295;-0.327810
2.740;-1.818053;-0.277295
2.750;-1.797758;-0.232210
2.760;-1.774558;-0.193902
2.770;-1.747072;-0.162948
2.780;-1.715005;-0.139183
2.790;-1.679436;-0.121835
2.800;-1.642625;-0.109684
2.810;-1.607370;-0.101251
2.820;-1.576115;-0.095078
2.830;-1.550107;-0.090109
2.840;-1.528918;-0.086074
2.850;-1.510537;-0.083661
2.860;-1.492053;-0.084303
2.870;-1.470678;-0.089605
2.880;-1.444707;-0.100684
2.890;-1.414021;-0.117797
2.900;-1.379937;-0.140496
2.910;-1.344533;-0.168209
2.920;-1.309785;-0.200890
2.930;-1.276890;-0.239319
2.940;-1.246047;-0.284840
2.950;-1.216743;-0.338633
2.960;-1.188337;-0.400886
2.970;-1.160620;-0.470326
2.980;-1.134071;-0.544424
2.990;-1.109692;-0.620274
3.000;-1.088557;-0.695722
3.010;-1.071291;-0.770214
3.020;-1.057682;-0.844914
3.030;-1.046533;-0.922060
3.040;-1.035723;-1.003838
3.050;-1.022446;-1.091286
3.060;-1.003630;-1.183676
3.070;-0.976520;-1.278637
3.080;-0.939406;-1.372872
3.090;-0.892286;-1.463130
3.100;-0.837190;-1.546965
3.110;-0.777950;-1.623080
3.120;-0.719351;-1.691297
3.130;-0.665891;-1.752348
3.140;-0.620514;-1.807644
3.150;-0.583789;-1.859070
3.160;-0.553811;-1.908769
3.170;-0.526922;-1.958889
3.180;-0.498998;-2.011276
3.190;-0.466837;-2.067190
3.200;-0.429131;-2.127134
3.210;-0.386700;-2.190896
3.220;-0.341990;-2.257810
3.230;-0.298121;-2.327153
3.240;-0.257904;-2.398462
3.250;-0.223164;-2.471606
3.260;-0.194501;-2.546527
3.270;-0.171453;-2.622775
3.280;-0.152836;-2.699096
3.290;-0.137121;-2.773326
3.300;-0.122725;-2.842719
3.310;-0.108264;-2.904577
3.320;-0.092803;-2.956945
3.330;-0.076099;-2.999097
3.340;-0.058733;-3.031640
3.350;-0.042044;-3.056204
3.360;-0.027797;-3.074864
3.370;-0.017644;-3.089561
3.380;-0.012525;-3.101741
3.390;-0.012187;-3.112281
3.400;-0.015003;-3.121608
3.410;-0.018191;-3.129880
3.420;-0.018384;-3.137155
3.430;-0.012412;-3.143504
3.440;0.001975;-3.149087
3.450;0.025648;-3.154146
3.460;0.058034;-3.158928
3.470;0.097401;-3.163592
3.480;0.141362;-3.168146
3.490;0.187417;-3.172473
3.500;0.233350;-3.176478
3.510;0.277414;-3.180285
3.520;0.318332;-3.184343
3.530;0.355230;-3.189342
3.540;0.387615;-3.195893
3.550;0.415416;-3.204142
3.560;0.439029;-3.213492
3.570;0.459258;-3.222570
3.580;0.477152;-3.229451
3.590;0.493752;-3.232018
3.600;0.509870;-3.228356
3.610;0.525949;-3.217075
3.620;0.542058;-3.197518
3.630;0.558008;-3.169864
3.640;0.573541;-3.135139
3.650;0.588491;-3.095148
3.660;0.602840;-3.052290
3.670;0.616694;-3.009204
3.680;0.630220;-2.968246
3.690;0.643618;-2.930919
3.700;0.657106;-2.897466
3.710;0.670905;-2.866829
3.720;0.685195;-2.837050
3.730;0.700047;-2.805981
3.740;0.715349;-2.772035
3.750;0.730725;-2.734657
3.760;0.745473;-2.694339
3.770;0.758558;-2.652181
3.780;0.768727;-2.609228
3.790;0.774757;-2.565932
3.800;0.775768;-2.522004
3.810;0.771480;-2.476676
3.820;0.762269;-2.429190
3.830;0.748974;-2.379220
3.840;0.732482;-2.327015
3.850;0.713288;-2.273229
3.860;0.691234;-2.218613
3.870;0.665577;-2.163751
3.880;0.635357;-2.109027
3.890;0.599927;-2.054816
3.900;0.559455;-2.001791
3.910;0.515214;-1.951138
3.920;0.469516;-1.904494
3.930;0.425256;-1.863576
3.940;0.385185;-1.829650
3.950;0.351128;-1.803091
3.960;0.323422;-1.783242
3.970;0.300766;-1.768611
3.980;0.280512;-1.757325
3.990;0.259265;-1.747619
4.000;0.233618;-1.738203
4.010;0.200808;-1.728389
4.020;0.159152;-1.717977
4.030;0.108140;-1.706993
4.040;0.048166;-1.695398
4.050;-0.019970;-1.682914
4.060;-0.095536;-1.669017
4.070;-0.178062;-1.653110
4.080;-0.267119;-1.634819
4.090;-0.361790;-1.614326
4.100;-0.460121;-1.592614
4.110;-0.558858;-1.571481
4.120;-0.653687;-1.553210
4.130;-0.739930;-1.539935
4.140;-0.813502;-1.532866
4.150;-0.871776;-1.531688
4.160;-0.914065;-1.534358
4.170;-0.941545;-1.537448
4.180;-0.956689;-1.536938
4.190;-0.962458;-1.529215
4.200;-0.961567;-1.511966
4.210;-0.956065;-1.484702
4.220;-0.947314;-1.448783
4.230;-0.936277;-1.406937
4.240;-0.923896;-1.362466
4.250;-0.911305;-1.318392
4.260;-0.899787;-1.276838
4.270;-0.890497;-1.238819
4.280;-0.884154;-1.204420
4.290;-0.880872;-1.173229
4.300;-0.880215;-1.144809
4.310;-0.881449;-1.119040
4.320;-0.883880;-1.096249
4.330;-0.887126;-1.077122
4.340;-0.891199;-1.062512
4.350;-0.896353;-1.053198
4.360;-0.902769;-1.049689
4.370;-0.910255;-1.052055
4.380;-0.918139;-1.059829
4.390;-0.925416;-1.071939
4.400;-0.931065;-1.086743
4.410;-0.934357;-1.102169
4.420;-0.935015;-1.115984
4.430;-0.933125;-1.126163
4.440;-0.928898;-1.131260
4.450;-0.922411;-1.130673
4.460;-0.913495;-1.124689
4.470;-0.901841;-1.114280
4.480;-0.887256;-1.100749
4.490;-0.869940;-1.085393
4.500;-0.850622;-1.069350
4.510;-0.830503;-1.053687
4.520;-0.811016;-1.039574
4.530;-0.793510;-1.028328
4.540;-0.778953;-1.021157
4.550;-0.767779;-1.018724
4.560;-0.759915;-1.020775
4.570;-0.754973;-1.026102
4.580;-0.752530;-1.032904
4.590;-0.752381;-1.039393
4.600;-0.754672;-1.044352
4.610;-0.759833;-1.047436
4.620;-0.768293;-1.049136
4.630;-0.780071;-1.050505
4.640;-0.794430;-1.052777
4.650;-0.809774;-1.057054
4.660;-0.823900;-1.064124
4.670;-0.834555;-1.074439
4.680;-0.840089;-1.088163
4.690;-0.839948;-1.105198
4.700;-0.834788;-1.125116
4.710;-0.826189;-1.147080
4.720;-0.816102;-1.169853
4.730;-0.806267;-1.192035
4.740;-0.797852;-1.212500
4.750;-0.791420;-1.230912
4.760;-0.787175;-1.248098
4.770;-0.785291;-1.266070
4.780;-0.786084;-1.287587
4.790;-0.789925;-1.315369
4.800;-0.796924;-1.351219
4.810;-0.806607;-1.395426
4.820;-0.817786;-1.446678
4.830;-0.828770;-1.502524
4.840;-0.837852;-1.560195
4.850;-0.843835;-1.617452
4.860;-0.846353;-1.673167
4.870;-0.845788;-1.727449
4.880;-0.842818;-1.781373
4.890;-0.837775;-1.836468
4.900;-0.830154;-1.894121
4.910;-0.818484;-1.955042
4.920;-0.800685;-2.018883
4.930;-0.774745;-2.084147
4.940;-0.739480;-2.148423
4.950;-0.695053;-2.208960
4.960;-0.643097;-2.263402
4.970;-0.586428;-2.310487
4.980;-0.528475;-2.350440
4.990;-0.472585;-2.384892
5.000;-0.421365;-2.416331
5.010;-0.376201;-2.447280
5.020;-0.337126;-2.479520
5.030;-0.303080;-2.513670
5.040;-0.272537;-2.549274
5.050;-0.244251;-2.585336
5.060;-0.217812;-2.621027
5.070;-0.193779;-2.656212
5.080;-0.173371;-2.691546
5.090;-0.157914;-2.728091
5.100;-0.148303;-2.766636
5.110;-0.144702;-2.807030
5.120;-0.146569;-2.847829
5.130;-0.152976;-2.886454
5.140;-0.163043;-2.919835
5.150;-0.176302;-2.945366
5.160;-0.192795;-2.961801
5.170;-0.212880;-2.969785
5.180;-0.236840;-2.971806
5.190;-0.264486;-2.971606
5.200;-0.294938;-2.973273
5.210;-0.326667;-2.980327
5.220;-0.357779;-2.995070
5.230;-0.386409;-3.018345
5.240;-0.411124;-3.049666
5.250;-0.431223;-3.087575
5.260;-0.446837;-3.130029
5.270;-0.458789;-3.174692
5.280;-0.468192;-3.219129
5.290;-0.475919;-3.260998
5.300;-0.482112;-3.298341
5.310;-0.485995;-3.330003
5.320;-0.486125;-3.356043
5.330;-0.481011;-3.377912
5.340;-0.469844;-3.398184
5.350;-0.452957;-3.419830
5.360;-0.431829;-3.445269
5.370;-0.408658;-3.475602
5.380;-0.385727;-3.510361
5.390;-0.364847;-3.547848
5.400;-0.347023;-3.585908
5.410;-0.332414;-3.622796
5.420;-0.320531;-3.657838
5.430;-0.310596;-3.691628
5.440;-0.301925;-3.725720
5.450;-0.294220;-3.761964
5.460;-0.287686;-3.801824
5.470;-0.282947;-3.845956
5.480;-0.280819;-3.894158
5.490;-0.282055;-3.945608
5.500;-0.287119;-3.999162
5.510;-0.296061;-4.053565
5.520;-0.308504;-4.107499
5.530;-0.323759;-4.159513
5.540;-0.341011;-4.207972
5.550;-0.359504;-4.251146
5.560;-0.378633;-4.287503
5.570;-0.397937;-4.316106
5.580;-0.417036;-4.336923
5.590;-0.435595;-4.350877
5.600;-0.453353;-4.359570
5.610;-0.470188;-4.364784
5.620;-0.486160;-4.367978
5.630;-0.501474;-4.369970
5.640;-0.516366;-4.370907
5.650;-0.530904;-4.370418
5.660;-0.544784;-4.367805
5.670;-0.557202;-4.362172
5.680;-0.566928;-4.352513
5.690;-0.572631;-4.337833
5.700;-0.573410;-4.317380
5.710;-0.569305;-4.290910
5.720;-0.561549;-4.258848
5.730;-0.552406;-4.222197
5.740;-0.544631;-4.182195
5.750;-0.540750;-4.139866
5.760;-0.542399;-4.095693
5.770;-0.549975;-4.049594
5.780;-0.562691;-4.001170
5.790;-0.578966;-3.950022
5.800;-0.596996;-3.895902
5.810;-0.615290;-3.838567
5.820;-0.633033;-3.777425
5.830;-0.650159;-3.711179
5.840;-0.667119;-3.637741
5.850;-0.684448;-3.554632
5.860;-0.702324;-3.459820
5.870;-0.720331;-3.352718
5.880;-0.737521;-3.234865
5.890;-0.752750;-3.109901
5.900;-0.765109;-2.982761
5.910;-0.774284;-2.858384
5.920;-0.780678;-2.740497
5.930;-0.785301;-2.630929
5.940;-0.789522;-2.529615
5.950;-0.794806;-2.435113
5.960;-0.802521;-2.345265
5.970;-0.813792;-2.257708
5.980;-0.829367;-2.170181
5.990;-0.849450;-2.080771
6.000;-0.873558;-1.988270
6.010;-0.900484;-1.892608
6.020;-0.928443;-1.795170
6.030;-0.955420;-1.698707
6.040;-0.979601;-1.606730
6.050;-0.999741;-1.522513
6.060;-1.015327;-1.448078
6.070;-1.026523;-1.383621
6.080;-1.033981;-1.327672
6.090;-1.038660;-1.277902
6.100;-1.041711;-1.232182
6.110;-1.044411;-1.189381
6.120;-1.048089;-1.149574
6.130;-1.054006;-1.113660
6.140;-1.063188;-1.082654
6.150;-1.076242;-1.057005
6.160;-1.093195;-1.036229
6.170;-1.113423;-1.018939
6.180;-1.135742;-1.003195
6.190;-1.158664;-0.987013
6.200;-1.180794;-0.968880
6.210;-1.201185;-0.948140
6.220;-1.219524;-0.925132
6.230;-1.236021;-0.901017
6.240;-1.251099;-0.877363
6.250;-1.265057;-0.855660
6.260;-1.277893;-0.836955
6.270;-1.289373;-0.821711
6.280;-1.299286;-0.809865
6.290;-1.307717;-0.801022
6.300;-1.315145;-0.794640
6.310;-1.322285;-0.790140
6.320;-1.329748;-0.786900
6.330;-1.337705;-0.784249
6.340;-1.345729;-0.781557
6.350;-1.352895;-0.778490
6.360;-1.358120;-0.775338
6.370;-1.360575;-0.773246
6.380;-1.360003;-0.774153
6.390;-1.356804;-0.780335
6.400;-1.351917;-0.793677
6.410;-1.346560;-0.814934
6.420;-1.341978;-0.843324
6.430;-1.339265;-0.876666
6.440;-1.339248;-0.912003
6.450;-1.342409;-0.946494
6.460;-1.348785;-0.978255
6.470;-1.357924;-1.006861
6.480;-1.368941;-1.033360
6.490;-1.380717;-1.059799
6.500;-1.392218;-1.088438
6.510;-1.402809;-1.120970
6.520;-1.412432;-1.158052
6.530;-1.421533;-1.199345
6.540;-1.430736;-1.244012
6.550;-1.440367;-1.291474
6.560;-1.450020;-1.342100
6.570;-1.458368;-1.397498
6.580;-1.463364;-1.460220
6.590;-1.462757;-1.532921
6.600;-1.454770;-1.617257
6.610;-1.438676;-1.712987
6.620;-1.415056;-1.817677
6.630;-1.385652;-1.927194
6.640;-1.352909;-2.036766
6.650;-1.319400;-2.142190
6.660;-1.287384;-2.240701
6.670;-1.258616;-2.331286
6.680;-1.234419;-2.414465
6.690;-1.215858;-2.491780
6.700;-1.203849;-2.565234
6.710;-1.199070;-2.636837
6.720;-1.201682;-2.708252
6.730;-1.211026;-2.780516
6.740;-1.225506;-2.853800
6.750;-1.242809;-2.927262
6.760;-1.260402;-2.999070
6.770;-1.276130;-3.066674
6.780;-1.288615;-3.127335
6.790;-1.297315;-3.178757
6.800;-1.302257;-3.219636
6.810;-1.303611;-3.249906
6.820;-1.301347;-3.270654
6.830;-1.295143;-3.283781
6.840;-1.284562;-3.291654
6.850;-1.269376;-3.296878
6.860;-1.249836;-3.302223
6.870;-1.226756;-3.310551
6.880;-1.201371;-3.324587
6.890;-1.175068;-3.346487
6.900;-1.149103;-3.377345
6.910;-1.124386;-3.416932
6.920;-1.101358;-3.463851
6.930;-1.080015;-3.516138
6.940;-1.060084;-3.572044
6.950;-1.041348;-3.630638
6.960;-1.024005;-3.691974
6.970;-1.008876;-3.756774
6.980;-0.997325;-3.825813
6.990;-0.990919;-3.899280
7.000;-0.990942;-3.976385
7.010;-0.997997;-4.055402
7.020;-1.011850;-4.134110
7.030;-1.031555;-4.210483
7.040;-1.055772;-4.283291
7.050;-1.083107;-4.352370
7.060;-1.112311;-4.418473
7.070;-1.142300;-4.482817
7.080;-1.172065;-4.546525
7.090;-1.200606;-4.610139
7.100;-1.226970;-4.673311
7.110;-1.250370;-4.734786
7.120;-1.270323;-4.792671
7.130;-1.286693;-4.844916
7.140;-1.299664;-4.889832
7.150;-1.309655;-4.926444
7.160;-1.317282;-4.954588
7.170;-1.323364;-4.974732
7.180;-1.328930;-4.987610
7.190;-1.335163;-4.993873
7.200;-1.343258;-4.993962
7.210;-1.354230;-4.988304
7.220;-1.368754;-4.977695
7.230;-1.387064;-4.963545
7.240;-1.408940;-4.947773
7.250;-1.433748;-4.932274
7.260;-1.460473;-4.918199
7.270;-1.487733;-4.905341
7.280;-1.513787;-4.891910
7.290;-1.536603;-4.874766
7.300;-1.554055;-4.850012
7.310;-1.564227;-4.813691
7.320;-1.565729;-4.762392
7.330;-1.557917;-4.693689
7.340;-1.540934;-4.606482
7.350;-1.515621;-4.501313
7.360;-1.483407;-4.380610
7.370;-1.446262;-4.248677
7.380;-1.406679;-4.111154
7.390;-1.367538;-3.973877
7.400;-1.331718;-3.841416
7.410;-1.301466;-3.715820
7.420;-1.277728;-3.596162
7.430;-1.259737;-3.479188
7.440;-1.245120;-3.360898
7.450;-1.230546;-3.238495
7.460;-1.212754;-3.111839
7.470;-1.189581;-2.983703
7.480;-1.160621;-2.858669
7.490;-1.127295;-2.741213
7.500;-1.092326;-2.633927
7.510;-1.058863;-2.536685
7.520;-1.029602;-2.446995
7.530;-1.006197;-2.361187
7.540;-0.989127;-2.275740
7.550;-0.977889;-2.188202
7.560;-0.971353;-2.097436
7.570;-0.968058;-2.003336
7.580;-0.966423;-1.906321
7.590;-0.964917;-1.806943
7.600;-0.962292;-1.705788
7.610;-0.957876;-1.603614
7.620;-0.951806;-1.501551
7.630;-0.945073;-1.401204
7.640;-0.939308;-1.304521
7.650;-0.936361;-1.213467
7.660;-0.937790;-1.129578
7.670;-0.944409;-1.053560
7.680;-0.956067;-0.985066
7.690;-0.971745;-0.922728
7.700;-0.989967;-0.864414
7.710;-1.009353;-0.807623
