Time[s];COPx[cm];COPy[cm]
0.010;-1.382063;0.012795
0.020;-1.373490;0.029840
0.030;-1.368281;0.045473
0.040;-1.368798;0.058664
0.050;-1.375848;0.068884
0.060;-1.388662;0.076087
0.070;-1.405362;0.080558
0.080;-1.423655;0.082733
0.090;-1.441474;0.083125
0.100;-1.457339;0.082404
0.110;-1.470429;0.081498
0.120;-1.480451;0.081540
0.130;-1.487482;0.083549
0.140;-1.491894;0.088025
0.150;-1.494358;0.094735
0.160;-1.495885;0.102839
0.170;-1.497790;0.111265
0.180;-1.501548;0.119099
0.190;-1.508500;0.125791
0.200;-1.519497;0.131139
0.210;-1.534603;0.135138
0.220;-1.552997;0.137805
0.230;-1.573104;0.139064
0.240;-1.592903;0.138723
0.250;-1.610345;0.136518
0.260;-1.623833;0.132185
0.270;-1.632669;0.125546
0.280;-1.637301;0.116562
0.290;-1.639203;0.105344
0.300;-1.640398;0.092124
0.310;-1.642807;0.077187
0.320;-1.647700;0.060785
0.330;-1.655475;0.043088
0.340;-1.665793;0.024194
0.350;-1.677969;0.004225
0.360;-1.691421;-0.016584
0.370;-1.705986;-0.037869
0.380;-1.722026;-0.059241
0.390;-1.740357;-0.080452
0.400;-1.762081;-0.101501
0.410;-1.788341;-0.122626
0.420;-1.819991;-0.144214
0.430;-1.857214;-0.166694
0.440;-1.899222;-0.190458
0.450;-1.944203;-0.215799
0.460;-1.989612;-0.242822
0.470;-2.032745;-0.271349
0.480;-2.071377;-0.300843
0.490;-2.104231;-0.330399
0.500;-2.131123;-0.358800
0.510;-2.152766;-0.384669
0.520;-2.170365;-0.406700
0.530;-2.185146;-0.423942
0.540;-2.197971;-0.436007
0.550;-2.209134;-0.443110
0.560;-2.218378;-0.445889
0.570;-2.225119;-0.445133
0.580;-2.228803;-0.441560
0.590;-2.229237;-0.435747
0.600;-2.226774;-0.428199
0.610;-2.222259;-0.419450
0.620;-2.216783;-0.410150
0.630;-2.211361;-0.401055
0.640;-2.206668;-0.392923
0.650;-2.202937;-0.386345
0.660;-2.200041;-0.381574
0.670;-2.197671;-0.378427
0.680;-2.195519;-0.376303
0.690;-2.193413;-0.374333
0.700;-2.191376;-0.371648
0.710;-2.189627;-0.367662
0.720;-2.188559;-0.362255
0.730;-2.188721;-0.355759
0.740;-2.190783;-0.348786
0.750;-2.195452;-0.341968
0.760;-2.203283;-0.335765
0.770;-2.214436;-0.330365
0.780;-2.228511;-0.325683
0.790;-2.244540;-0.321416
0.800;-2.261158;-0.317143
0.810;-2.276867;-0.312485
0.820;-2.290292;-0.307275
0.830;-2.300390;-0.301668
0.840;-2.306609;-0.296123
0.850;-2.308985;-0.291245
0.860;-2.308128;-0.287544
0.870;-2.305013;-0.285184
0.880;-2.300618;-0.283835
0.890;-2.295551;-0.282691
0.900;-2.289839;-0.280721
0.910;-2.282990;-0.277032
0.920;-2.274252;-0.271189
0.930;-2.262905;-0.263295
0.940;-2.248474;-0.253790
0.950;-2.230785;-0.243094
0.960;-2.209899;-0.231328
0.970;-2.185964;-0.218306
0.980;-2.159062;-0.203803
0.990;-2.129138;-0.187940
1.000;-2.096070;-0.171445
1.010;-2.059883;-0.155606
1.020;-2.021021;-0.141935
1.030;-1.980576;-0.131724
1.040;-1.940392;-0.125724
1.050;-1.902937;-0.124055
1.060;-1.870931;-0.126341
1.070;-1.846784;-0.131917
1.080;-1.832013;-0.140022
1.090;-1.826822;-0.149903
1.100;-1.829987;-0.160830
1.110;-1.839072;-0.172097
1.120;-1.850940;-0.183048
1.130;-1.862380;-0.193178
1.140;-1.870707;-0.202265
1.150;-1.874232;-0.210469
1.160;-1.872538;-0.218328
1.170;-1.866516;-0.226624
1.180;-1.858121;-0.236114
1.190;-1.849890;-0.247211
1.200;-1.844361;-0.259752
1.210;-1.843575;-0.272993
1.220;-1.848777;-0.285867
1.230;-1.860348;-0.297410
1.240;-1.877945;-0.307168
1.250;-1.900752;-0.315422
1.260;-1.927742;-0.323116
1.270;-1.957820;-0.331527
1.280;-1.989788;-0.341794
1.290;-2.022203;-0.354525
1.300;-2.053291;-0.369675
1.310;-2.081078;-0.386758
1.320;-2.103754;-0.405281
1.330;-2.120104;-0.425142
1.340;-2.129773;-0.446742
1.350;-2.133278;-0.470733
1.360;-2.131824;-0.497549
1.370;-2.127010;-0.526981
1.380;-2.120541;-0.558007
1.390;-2.113981;-0.588955
1.400;-2.108599;-0.617898
1.410;-2.105277;-0.643131
1.420;-2.104458;-0.663534
1.430;-2.106102;-0.678758
1.440;-2.109692;-0.689192
1.450;-2.114329;-0.695795
1.460;-2.118909;-0.699843
1.470;-2.122370;-0.702666
1.480;-2.123960;-0.705439
1.490;-2.123437;-0.709049
1.500;-2.121119;-0.714015
1.510;-2.117775;-0.720459
1.520;-2.114433;-0.728080
1.530;-2.112173;-0.736172
1.540;-2.111946;-0.743725
1.550;-2.114395;-0.749641
1.560;-2.119712;-0.753021
1.570;-2.127556;-0.753379
1.580;-2.137071;-0.750684
1.590;-2.147011;-0.745219
1.600;-2.155934;-0.737368
1.610;-2.162411;-0.727453
1.620;-2.165221;-0.715676
1.630;-2.163530;-0.702137
1.640;-2.157042;-0.686865
1.650;-2.146089;-0.669832
1.660;-2.131619;-0.650956
1.670;-2.115024;-0.630129
1.680;-2.097824;-0.607305
1.690;-2.081320;-0.582662
1.700;-2.066341;-0.556746
1.710;-2.053217;-0.530481
1.720;-2.041939;-0.505012
1.730;-2.032383;-0.481430
1.740;-2.024443;-0.460499
1.750;-2.018004;-0.442475
1.760;-2.012827;-0.427064
1.770;-2.008478;-0.413540
1.780;-2.004390;-0.400969
1.790;-2.000057;-0.388463
1.800;-1.995256;-0.375353
1.810;-1.990233;-0.361261
1.820;-1.985763;-0.346072
1.830;-1.983052;-0.329842
1.840;-1.983437;-0.312687
1.850;-1.987967;-0.294656
1.860;-1.996981;-0.275672
1.870;-2.009845;-0.255549
1.880;-2.024947;-0.234124
1.890;-2.039938;-0.211438
1.900;-2.052153;-0.187869
1.910;-2.059095;-0.164161
1.920;-2.058906;-0.141310
1.930;-2.050712;-0.120342
1.940;-2.034803;-0.102050
1.950;-2.012583;-0.086783
1.960;-1.986319;-0.074387
1.970;-1.958778;-0.064317
1.980;-1.932832;-0.055856
1.990;-1.911134;-0.048354
2.000;-1.895858;-0.041388
2.010;-1.888473;-0.034844
2.020;-1.889548;-0.028887
2.030;-1.898666;-0.023864
2.040;-1.914494;-0.020132
2.050;-1.935053;-0.017879
2.060;-1.958071;-0.017025
2.070;-1.981347;-0.017272
2.080;-2.003051;-0.018295
2.090;-2.021940;-0.019992
2.100;-2.037507;-0.022677
2.110;-2.050034;-0.027128
2.120;-2.060534;-0.034433
2.130;-2.070560;-0.045666
2.140;-2.081884;-0.061488
2.150;-2.096109;-0.081825
2.160;-2.114310;-0.105785
2.170;-2.136826;-0.131854
2.180;-2.163247;-0.158296
2.190;-2.192614;-0.183575
2.200;-2.223743;-0.206651
2.210;-2.255610;-0.227044
2.220;-2.287668;-0.244714
2.230;-2.319988;-0.259874
2.240;-2.353157;-0.272879
2.250;-2.387988;-0.284226
2.260;-2.425176;-0.294600
2.270;-2.465025;-0.304845
2.280;-2.507345;-0.315789
2.290;-2.551492;-0.327973
2.300;-2.596523;-0.341418
2.310;-2.641354;-0.355529
2.320;-2.684858;-0.369200
2.330;-2.725905;-0.381080
2.340;-2.763407;-0.389885
2.350;-2.796372;-0.394673
2.360;-2.823983;-0.395006
2.370;-2.845666;-0.391000
2.380;-2.861156;-0.383261
2.390;-2.870552;-0.372739
2.400;-2.874303;-0.360525
2.410;-2.873106;-0.347643
2.420;-2.867725;-0.334872
2.430;-2.858860;-0.322623
2.440;-2.847129;-0.310882
2.450;-2.833189;-0.299240
2.460;-2.817910;-0.287024
2.470;-2.802486;-0.273512
2.480;-2.788418;-0.258204
2.490;-2.777359;-0.241011
2.500;-2.770877;-0.222268
2.510;-2.770210;-0.202575
2.520;-2.776058;-0.182544
2.530;-2.788456;-0.162583
2.540;-2.806722;-0.142781
2.550;-2.829498;-0.122914
2.560;-2.854902;-0.102553
2.570;-2.880795;-0.081252
2.580;-2.905112;-0.058735
2.590;-2.926208;-0.035048
2.600;-2.943093;-0.010625
2.610;-2.955559;0.013764
2.620;-2.964138;0.037174
2.630;-2.969945;0.058695
2.640;-2.974421;0.077636
2.650;-2.979037;0.093596
2.660;-2.985029;0.106450
2.670;-2.993189;0.116278
2.680;-3.003787;0.123301
2.690;-3.016600;0.127834
2.700;-3.031013;0.130273
2.710;-3.046115;0.131096
2.720;-3.060736;0.130852
2.730;-3.073506;0.130115
2.740;-3.083013;0.129386
2.750;-3.088114;0.128972
2.760;-3.088303;0.128861
2.770;-3.083954;0.128643
2.780;-3.076284;0.127506
2.790;-3.067000;0.124366
2.800;-3.057747;0.118112
2.810;-3.049610;0.107925
2.820;-3.042852;0.093559
2.830;-3.036971;0.075483
2.840;-3.030962;0.054831
2.850;-3.023648;0.033177
2.860;-3.013917;0.012218
2.870;-3.000810;-0.006566
2.880;-2.983502;-0.022206
2.890;-2.961288;-0.034452
2.900;-2.933679;-0.043826
2.910;-2.900651;-0.051487
2.920;-2.862923;-0.058930
2.930;-2.822122;-0.067601
2.940;-2.780702;-0.078542
2.950;-2.741626;-0.092163
2.960;-2.707902;-0.108189
2.970;-2.682109;-0.125817
2.980;-2.666034;-0.144032
2.990;-2.660456;-0.161960
3.000;-2.665085;-0.179086
3.010;-2.678644;-0.195234
3.020;-2.699094;-0.210354
3.030;-2.724015;-0.224299
3.040;-2.751069;-0.236739
3.050;-2.778426;-0.247253
3.060;-2.805028;-0.255546
3.070;-2.830655;-0.261651
3.080;-2.855832;-0.266000
3.090;-2.881680;-0.269318
3.100;-2.909799;-0.272391
3.110;-2.942193;-0.275821
3.120;-2.981107;-0.279889
3.130;-3.028672;-0.284544
3.140;-3.086290;-0.289482
3.150;-3.153930;-0.294258
3.160;-3.229624;-0.298386
3.170;-3.309436;-0.301458
3.180;-3.388038;-0.303266
3.190;-3.459769;-0.303938
3.200;-3.519871;-0.304034
3.210;-3.565451;-0.304494
3.220;-3.595879;-0.306378
3.230;-3.612493;-0.310450
3.240;-3.617785;-0.316771
3.250;-3.614429;-0.324549
3.260;-3.604500;-0.332350
3.270;-3.589152;-0.338584
3.280;-3.568801;-0.342066
3.290;-3.543652;-0.342390
3.300;-3.514316;-0.339992
3.310;-3.482170;-0.335906
3.320;-3.449278;-0.331355
3.330;-3.417843;-0.327345
3.340;-3.389475;-0.324424
3.350;-3.364571;-0.322653
3.360;-3.342096;-0.321743
3.370;-3.319872;-0.321236
3.380;-3.295288;-0.320591
3.390;-3.266193;-0.319191
3.400;-3.231620;-0.316377
3.410;-3.192071;-0.311606
3.420;-3.149299;-0.304684
3.430;-3.105723;-0.295918
3.440;-3.063766;-0.286058
3.450;-3.025361;-0.276065
3.460;-2.991770;-0.266815
3.470;-2.963640;-0.258915
3.480;-2.941174;-0.252645
3.490;-2.924258;-0.247990
3.500;-2.912479;-0.244700
3.510;-2.905085;-0.242356
3.520;-2.900968;-0.240469
3.530;-2.898759;-0.238624
3.540;-2.897041;-0.236623
3.550;-2.894611;-0.234542
3.560;-2.890659;-0.232656
3.570;-2.884807;-0.231258
3.580;-2.877007;-0.230459
3.590;-2.867403;-0.230062
3.600;-2.856261;-0.229579
3.610;-2.844000;-0.228408
3.620;-2.831254;-0.226109
3.630;-2.818898;-0.222647
3.640;-2.807989;-0.218487
3.650;-2.799613;-0.214501
3.660;-2.794629;-0.211721
3.670;-2.793378;-0.211032
3.680;-2.795428;-0.212928
3.690;-2.799535;-0.217418
3.700;-2.803896;-0.224090
3.710;-2.806651;-0.232284
3.720;-2.806395;-0.241254
3.730;-2.802483;-0.250276
3.740;-2.794979;-0.258723
3.750;-2.784381;-0.266124
3.760;-2.771283;-0.272235
3.770;-2.756165;-0.277035
3.780;-2.739370;-0.280640
3.790;-2.721238;-0.283163
3.800;-2.702278;-0.284654
3.810;-2.683298;-0.285170
3.820;-2.665403;-0.284948
3.830;-2.649880;-0.284510
3.840;-2.637993;-0.284628
3.850;-2.630768;-0.286150
3.860;-2.628847;-0.289815
3.870;-2.632424;-0.296145
3.880;-2.641234;-0.305373
3.890;-2.654551;-0.317375
3.900;-2.671204;-0.331612
3.910;-2.689650;-0.347131
3.920;-2.708170;-0.362708
3.930;-2.725145;-0.377124
3.940;-2.739361;-0.389480
3.950;-2.750257;-0.399440
3.960;-2.758072;-0.407296
3.970;-2.763855;-0.413874
3.980;-2.769269;-0.420330
3.990;-2.776232;-0.427906
4.000;-2.786448;-0.437712
4.010;-2.800962;-0.450478
4.020;-2.819845;-0.466282
4.030;-2.842106;-0.484331
4.040;-2.865847;-0.502950
4.050;-2.888635;-0.519915
4.060;-2.907959;-0.533031
4.070;-2.921680;-0.540716
4.080;-2.928373;-0.542332
4.090;-2.927551;-0.538119
4.100;-2.919714;-0.528870
4.110;-2.906207;-0.515592
4.120;-2.888903;-0.499333
4.130;-2.869800;-0.481199
4.140;-2.850694;-0.462417
4.150;-2.833014;-0.444317
4.160;-2.817852;-0.428150
4.170;-2.806093;-0.414820
4.180;-2.798502;-0.404658
4.190;-2.795702;-0.397375
4.200;-2.798049;-0.392265
4.210;-2.805492;-0.388526
4.220;-2.817495;-0.385542
4.230;-2.833111;-0.382961
4.240;-2.851202;-0.380587
4.250;-2.870762;-0.378178
4.260;-2.891206;-0.375305
4.270;-2.912539;-0.371358
4.280;-2.935338;-0.365715
4.290;-2.960571;-0.358010
4.300;-2.989322;-0.348364
4.310;-3.022516;-0.337475
4.320;-3.060703;-0.326471
4.330;-3.103921;-0.316585
4.340;-3.151627;-0.308773
4.350;-3.202673;-0.303466
4.360;-3.255336;-0.300536
4.370;-3.307456;-0.299453
4.380;-3.356718;-0.299524
4.390;-3.401052;-0.300096
4.400;-3.439059;-0.300646
4.410;-3.470318;-0.300795
4.420;-3.495445;-0.300286
4.430;-3.515854;-0.298965
4.440;-3.533261;-0.296759
4.450;-3.549152;-0.293656
4.460;-3.564399;-0.289685
4.470;-3.579157;-0.284932
4.480;-3.593002;-0.279603
4.490;-3.605231;-0.274091
4.500;-3.615180;-0.268958
4.510;-3.622479;-0.264771
4.520;-3.627156;-0.261840
4.530;-3.629602;-0.260022
4.540;-3.630417;-0.258727
4.550;-3.630209;-0.257157
4.560;-3.629430;-0.254622
4.570;-3.628281;-0.250788
4.580;-3.626706;-0.245712
4.590;-3.624446;-0.239700
4.600;-3.621102;-0.233077
4.610;-3.616210;-0.225972
4.620;-3.609312;-0.218251
4.630;-3.600065;-0.209613
4.640;-3.588372;-0.199840
4.650;-3.574524;-0.189044
4.660;-3.559303;-0.177792
4.670;-3.543985;-0.167010
4.680;-3.530181;-0.157746
4.690;-3.519579;-0.150873
4.700;-3.513619;-0.146868
4.710;-3.513211;-0.145696
4.720;-3.518521;-0.146808
4.730;-3.528854;-0.149261
4.740;-3.542668;-0.151955
4.750;-3.557748;-0.153926
4.760;-3.571571;-0.154575
4.770;-3.581781;-0.153736
4.780;-3.586632;-0.151547
4.790;-3.585257;-0.148226
4.800;-3.577698;-0.143868
4.810;-3.564744;-0.138380
4.820;-3.547649;-0.131602
4.830;-3.527803;-0.123504
4.840;-3.506395;-0.114359
4.850;-3.484145;-0.104751
4.860;-3.461137;-0.095434
4.870;-3.436785;-0.087120
4.880;-3.409963;-0.080325
4.890;-3.379252;-0.075317
4.900;-3.343290;-0.072101
4.910;-3.301133;-0.070405
4.920;-3.252552;-0.069676
4.930;-3.198158;-0.069167
4.940;-3.139350;-0.068106
4.950;-3.078094;-0.065872
4.960;-3.016643;-0.062108
4.970;-2.957236;-0.056763
4.980;-2.901827;-0.050123
4.990;-2.851849;-0.042831
5.000;-2.808107;-0.035824
5.010;-2.770838;-0.030130
5.020;-2.739926;-0.026555
5.030;-2.715164;-0.025424
5.040;-2.696411;-0.026518
5.050;-2.683576;-0.029208
5.060;-2.676430;-0.032701
5.070;-2.674375;-0.036263
5.080;-2.676332;-0.039350
5.090;-2.680827;-0.041634
5.100;-2.686323;-0.042964
5.110;-2.691706;-0.043320
5.120;-2.696798;-0.042807
5.130;-2.702661;-0.041685
5.140;-2.711500;-0.040389
5.150;-2.726162;-0.039487
5.160;-2.749415;-0.039552
5.170;-2.783240;-0.040997
5.180;-2.828344;-0.043942
5.190;-2.883966;-0.048175
5.200;-2.947979;-0.053220
5.210;-3.017239;-0.058464
5.220;-3.088120;-0.063289
5.230;-3.157142;-0.067193
5.240;-3.221576;-0.069891
5.250;-3.279894;-0.071386
5.260;-3.331967;-0.071975
5.270;-3.378948;-0.072183
5.280;-3.422887;-0.072609
5.290;-3.466130;-0.073759
5.300;-3.510654;-0.075915
5.310;-3.557473;-0.079103
5.320;-3.606310;-0.083148
5.330;-3.655651;-0.087750
5.340;-3.703131;-0.092556
5.350;-3.746101;-0.097198
5.360;-3.782160;-0.101316
5.370;-3.809519;-0.104577
5.380;-3.827168;-0.106722
5.390;-3.834880;-0.107617
5.400;-3.833140;-0.107340
5.410;-3.823051;-0.106256
5.420;-3.806225;-0.105039
5.430;-3.784657;-0.104571
5.440;-3.760584;-0.105721
5.450;-3.736310;-0.109056
5.460;-3.713975;-0.114647
5.470;-3.695257;-0.122058
5.480;-3.681068;-0.130510
5.490;-3.671333;-0.139114
5.500;-3.664954;-0.147062
5.510;-3.659990;-0.153753
5.520;-3.654023;-0.158854
5.530;-3.644590;-0.162344
5.540;-3.629568;-0.164521
5.550;-3.607439;-0.165977
5.560;-3.577455;-0.167507
5.570;-3.539741;-0.169979
5.580;-3.495388;-0.174177
5.590;-3.446439;-0.180666
5.600;-3.395695;-0.189662
5.610;-3.346285;-0.200943
5.620;-3.301080;-0.213845
5.630;-3.262087;-0.227385
5.640;-3.229969;-0.240498
5.650;-3.203796;-0.252314
5.660;-3.181167;-0.262322
5.670;-3.158769;-0.270356
5.680;-3.133311;-0.276443
5.690;-3.102542;-0.280635
5.700;-3.065980;-0.282961
5.710;-3.025072;-0.283506
5.720;-2.982753;-0.282554
5.730;-2.942573;-0.280642
5.740;-2.907708;-0.278480
5.750;-2.880190;-0.276744
5.760;-2.860569;-0.275884
5.770;-2.848059;-0.276025
5.780;-2.841026;-0.276979
5.790;-2.837623;-0.278318
5.800;-2.836339;-0.279457
5.810;-2.836295;-0.279801
5.820;-2.837211;-0.278940
5.830;-2.839109;-0.276844
5.840;-2.841922;-0.273949
5.850;-2.845195;-0.271012
5.860;-2.847995;-0.268765
5.870;-2.849037;-0.267535
5.880;-2.846970;-0.267016
5.890;-2.840737;-0.266345
5.900;-2.829935;-0.264445
5.910;-2.815099;-0.260501
5.920;-2.797819;-0.254338
5.930;-2.780633;-0.246538
5.940;-2.766656;-0.238237
5.950;-2.759000;-0.230712
5.960;-2.760156;-0.224952
5.970;-2.771477;-0.221419
5.980;-2.792930;-0.220039
5.990;-2.823152;-0.220347
6.000;-2.859823;-0.221670
6.010;-2.900228;-0.223327
6.020;-2.941857;-0.224809
6.030;-2.982820;-0.225914
6.040;-3.021979;-0.226781
6.050;-3.058843;-0.227794
6.060;-3.093342;-0.229402
6.070;-3.125639;-0.231960
6.080;-3.155982;-0.235671
6.090;-3.184594;-0.240622
6.100;-3.211574;-0.246881
6.110;-3.236813;-0.254528
6.120;-3.259978;-0.263557
6.130;-3.280580;-0.273648
6.140;-3.298097;-0.283990
6.150;-3.312136;-0.293301
6.160;-3.322575;-0.300105
6.170;-3.329626;-0.303112
6.180;-3.333744;-0.301565
6.190;-3.335374;-0.295445
6.200;-3.334644;-0.285493
6.210;-3.331184;-0.273065
6.220;-3.324244;-0.259846
6.230;-3.313092;-0.247521
6.240;-3.297525;-0.237462
6.250;-3.278194;-0.230489
6.260;-3.256587;-0.226751
6.270;-3.234664;-0.225778
6.280;-3.214318;-0.226700
6.290;-3.196861;-0.228582
6.300;-3.182728;-0.230746
6.310;-3.171433;-0.232942
6.320;-3.161749;-0.235261
6.330;-3.152034;-0.237843
6.340;-3.140603;-0.240533
6.350;-3.126103;-0.242704
6.360;-3.107846;-0.243375
6.370;-3.086016;-0.241582
6.380;-3.061660;-0.236808
6.390;-3.036444;-0.229278
6.400;-3.012212;-0.219987
6.410;-2.990496;-0.210451
6.420;-2.972075;-0.202299
6.430;-2.956721;-0.196837
6.440;-2.943183;-0.194686
6.450;-2.929430;-0.195591
6.460;-2.913085;-0.198480
6.470;-2.891970;-0.201811
6.480;-2.864637;-0.204087
6.490;-2.830771;-0.204364
6.500;-2.791314;-0.202535
6.510;-2.748276;-0.199286
6.520;-2.704294;-0.195741
6.530;-2.662075;-0.192974
6.540;-2.623871;-0.191603
6.550;-2.591118;-0.191659
6.560;-2.564264;-0.192745
6.570;-2.542819;-0.194383
6.580;-2.525545;-0.196344
6.590;-2.510732;-0.198797
6.600;-2.496480;-0.202223
6.610;-2.480980;-0.207178
6.620;-2.462806;-0.214033
6.630;-2.441172;-0.222822
6.640;-2.416096;-0.233241
6.650;-2.388396;-0.244781
6.660;-2.359517;-0.256926
6.670;-2.331247;-0.269350
6.680;-2.305395;-0.282036
6.690;-2.283530;-0.295249
6.700;-2.266818;-0.309369
6.710;-2.255957;-0.324608
6.720;-2.251185;-0.340766
6.730;-2.252296;-0.357147
6.740;-2.258665;-0.372753
6.750;-2.269322;-0.386657
6.760;-2.283120;-0.398391
6.770;-2.298985;-0.408120
6.780;-2.316207;-0.416548
6.790;-2.334630;-0.424646
6.800;-2.354713;-0.433359
6.810;-2.377418;-0.443412
6.820;-2.403957;-0.455255
6.830;-2.435399;-0.469112
6.840;-2.472215;-0.485034
6.850;-2.513905;-0.502894
6.860;-2.558909;-0.522300
6.870;-2.604879;-0.542507
6.880;-2.649239;-0.562470
6.890;-2.689818;-0.581070
6.900;-2.725328;-0.597434
6.910;-2.755522;-0.611157
6.920;-2.781031;-0.622302
6.930;-2.802940;-0.631219
6.940;-2.822268;-0.638271
6.950;-2.839557;-0.643621
6.960;-2.854729;-0.647145
6.970;-2.867272;-0.648514
6.980;-2.876651;-0.647383
6.990;-2.882724;-0.643591
7.000;-2.885939;-0.637251
7.010;-2.887214;-0.628680
7.020;-2.887583;-0.618222
7.030;-2.887772;-0.606118
7.040;-2.887922;-0.592507
7.050;-2.887593;-0.577563
7.060;-2.886071;-0.561662
7.070;-2.882843;-0.545471
7.080;-2.878000;-0.529854
7.090;-2.872388;-0.515631
7.100;-2.867423;-0.503276
7.110;-2.864660;-0.492712
7.120;-2.865267;-0.483304
7.130;-2.869597;-0.474044
7.140;-2.877044;-0.463852
7.150;-2.886233;-0.451884
7.160;-2.895458;-0.437771
7.170;-2.903189;-0.421731
7.180;-2.908440;-0.404521
7.190;-2.910915;-0.387229
7.200;-2.910959;-0.371016
7.210;-2.909388;-0.356877
7.220;-2.907289;-0.345474
7.230;-2.905801;-0.337027
7.240;-2.905884;-0.331281
7.250;-2.908094;-0.327550
7.260;-2.912405;-0.324881
7.270;-2.918133;-0.322297
7.280;-2.924021;-0.319051
7.290;-2.928484;-0.314779
7.300;-2.929977;-0.309503
7.310;-2.927383;-0.303507
7.320;-2.920319;-0.297124
7.330;-2.909270;-0.290508
7.340;-2.895463;-0.283460
7.350;-2.880530;-0.275449
7.360;-2.866088;-0.265824
7.370;-2.853395;-0.254186
7.380;-2.843219;-0.240726
7.390;-2.835911;-0.226359
7.400;-2.831601;-0.212578
7.410;-2.830358;-0.201068
7.420;-2.832242;-0.193240
7.430;-2.837184;-0.189842
7.440;-2.844762;-0.190753
7.450;-2.854012;-0.195011
7.460;-2.863460;-0.201104
7.470;-2.871461;-0.207451
7.480;-2.876747;-0.212922
7.490;-2.878894;-0.217206
7.500;-2.878449;-0.220867
7.510;-2.876641;-0.225069
7.520;-2.874810;-0.231043
7.530;-2.873825;-0.239544
7.540;-2.873740;-0.250551
7.550;-2.873793;-0.263368
7.560;-2.872741;-0.277048
7.570;-2.869345;-0.290895
7.580;-2.862851;-0.304778
7.590;-2.853277;-0.319117
7.600;-2.841452;-0.334581
7.610;-2.828823;-0.351666
7.620;-2.817122;-0.370359
7.630;-2.807954;-0.390085
7.640;-2.802427;-0.409972
7.650;-2.800904;-0.429332
7.660;-2.802988;-0.448107
7.670;-2.807718;-0.467046
7.680;-2.813861;-0.487477
7.690;-2.820205;-0.510760
7.700;-2.825752;-0.537623
