Time[s];COPx[cm];COPy[cm]
0.010;-3.380897;-0.310130
0.020;-3.376936;-0.320706
0.030;-3.373367;-0.330401
0.040;-3.370505;-0.338436
0.050;-3.368544;-0.344293
0.060;-3.367543;-0.347851
0.070;-3.367419;-0.349439
0.080;-3.367949;-0.349711
0.090;-3.368778;-0.349395
0.100;-3.369482;-0.349042
0.110;-3.369695;-0.348925
0.120;-3.369245;-0.349120
0.130;-3.368227;-0.349663
0.140;-3.366964;-0.350670
0.150;-3.365852;-0.352349
0.160;-3.365210;-0.354939
0.170;-3.365200;-0.358652
0.180;-3.365832;-0.363666
0.190;-3.367003;-0.370142
0.200;-3.368537;-0.378202
0.210;-3.370224;-0.387836
0.220;-3.371877;-0.398780
0.230;-3.373386;-0.410486
0.240;-3.374733;-0.422237
0.250;-3.375956;-0.433372
0.260;-3.377073;-0.443499
0.270;-3.377994;-0.452571
0.280;-3.378466;-0.460825
0.290;-3.378098;-0.468627
0.300;-3.376484;-0.476309
0.310;-3.373371;-0.484050
0.320;-3.368765;-0.491824
0.330;-3.362918;-0.499447
0.340;-3.356181;-0.506690
0.350;-3.348819;-0.513411
0.360;-3.340896;-0.519652
0.370;-3.332273;-0.525639
0.380;-3.322728;-0.531659
0.390;-3.312103;-0.537871
0.400;-3.300408;-0.544162
0.410;-3.287852;-0.550147
0.420;-3.274781;-0.555318
0.430;-3.261575;-0.559272
0.440;-3.248555;-0.561896
0.450;-3.235929;-0.563422
0.460;-3.223792;-0.564373
0.470;-3.212147;-0.565411
0.480;-3.200941;-0.567162
0.490;-3.190114;-0.570033
0.500;-3.179628;-0.574093
0.510;-3.169469;-0.579027
0.520;-3.159627;-0.584209
0.530;-3.150099;-0.588871
0.540;-3.140903;-0.592340
0.550;-3.132105;-0.594255
0.560;-3.123796;-0.594666
0.570;-3.116048;-0.594000
0.580;-3.108865;-0.592893
0.590;-3.102162;-0.591957
0.600;-3.095795;-0.591566
0.610;-3.089616;-0.591712
0.620;-3.083530;-0.592021
0.630;-3.077522;-0.591927
0.640;-3.071660;-0.590926
0.650;-3.066073;-0.588787
0.660;-3.060932;-0.585618
0.670;-3.056443;-0.581787
0.680;-3.052839;-0.577753
0.690;-3.050348;-0.573860
0.700;-3.049091;-0.570187
0.710;-3.048964;-0.566512
0.720;-3.049550;-0.562418
0.730;-3.050130;-0.557491
0.740;-3.049810;-0.551506
0.750;-3.047738;-0.544528
0.760;-3.043319;-0.536908
0.770;-3.036372;-0.529170
0.780;-3.027180;-0.521847
0.790;-3.016436;-0.515301
0.800;-3.005089;-0.509597
0.810;-2.994093;-0.504463
0.820;-2.984118;-0.499355
0.830;-2.975342;-0.493624
0.840;-2.967398;-0.486737
0.850;-2.959520;-0.478483
0.860;-2.950816;-0.469056
0.870;-2.940561;-0.459007
0.880;-2.928411;-0.449087
0.890;-2.914486;-0.440037
0.900;-2.899302;-0.432385
0.910;-2.883618;-0.426271
0.920;-2.868230;-0.421357
0.930;-2.853773;-0.416894
0.940;-2.840573;-0.411941
0.950;-2.828576;-0.405703
0.960;-2.817405;-0.397818
0.970;-2.806499;-0.388501
0.980;-2.795304;-0.378429
0.990;-2.783423;-0.368469
1.000;-2.770688;-0.359361
1.010;-2.757123;-0.351513
1.020;-2.742838;-0.344984
1.030;-2.727903;-0.339615
1.040;-2.712264;-0.335227
1.050;-2.695723;-0.331753
1.060;-2.678021;-0.329253
1.070;-2.658971;-0.327813
1.080;-2.638602;-0.327408
1.090;-2.617240;-0.327814
1.100;-2.595497;-0.328620
1.110;-2.574156;-0.329349
1.120;-2.554025;-0.329618
1.130;-2.535763;-0.329298
1.140;-2.519790;-0.328581
1.150;-2.506258;-0.327911
1.160;-2.495116;-0.327812
1.170;-2.486179;-0.328688
1.180;-2.479189;-0.330714
1.190;-2.473843;-0.333861
1.200;-2.469797;-0.337993
1.210;-2.466662;-0.342953
1.220;-2.464019;-0.348588
1.230;-2.461450;-0.354730
1.240;-2.458584;-0.361170
1.250;-2.455140;-0.367649
1.260;-2.450982;-0.373894
1.270;-2.446165;-0.379722
1.280;-2.440968;-0.385172
1.290;-2.435856;-0.390608
1.300;-2.431389;-0.396671
1.310;-2.428110;-0.404078
1.320;-2.426470;-0.413313
1.330;-2.426817;-0.424389
1.340;-2.429433;-0.436794
1.350;-2.434571;-0.449639
1.360;-2.442460;-0.461931
1.370;-2.453256;-0.472844
1.380;-2.466966;-0.481925
1.390;-2.483374;-0.489171
1.400;-2.501996;-0.494987
1.410;-2.522088;-0.500017
1.420;-2.542721;-0.504923
1.430;-2.562942;-0.510217
1.440;-2.581955;-0.516186
1.450;-2.599279;-0.522931
1.460;-2.614792;-0.530454
1.470;-2.628654;-0.538719
1.480;-2.641130;-0.547703
1.490;-2.652386;-0.557418
1.500;-2.662349;-0.567928
1.510;-2.670702;-0.579315
1.520;-2.677024;-0.591637
1.530;-2.681011;-0.604876
1.540;-2.682686;-0.618944
1.550;-2.682498;-0.633722
1.560;-2.681281;-0.649102
1.570;-2.680098;-0.665022
1.580;-2.680006;-0.681488
1.590;-2.681805;-0.698593
1.600;-2.685835;-0.716510
1.610;-2.691866;-0.735441
1.620;-2.699152;-0.755539
1.630;-2.706643;-0.776845
1.640;-2.713309;-0.799251
1.650;-2.718433;-0.822509
1.660;-2.721760;-0.846258
1.670;-2.723436;-0.870049
1.680;-2.723809;-0.893361
1.690;-2.723243;-0.915643
1.700;-2.722043;-0.936352
1.710;-2.720490;-0.954987
1.720;-2.718901;-0.971097
1.730;-2.717645;-0.984259
1.740;-2.717076;-0.994076
1.750;-2.717448;-1.000228
1.760;-2.718858;-1.002566
1.770;-2.721238;-1.001206
1.780;-2.724384;-0.996557
1.790;-2.728021;-0.989256
1.800;-2.731877;-0.980006
1.810;-2.735756;-0.969406
1.820;-2.739590;-0.957822
1.830;-2.743437;-0.945374
1.840;-2.747433;-0.932024
1.850;-2.751707;-0.917694
1.860;-2.756305;-0.902371
1.870;-2.761151;-0.886140
1.880;-2.766048;-0.869194
1.890;-2.770723;-0.851847
1.900;-2.774919;-0.834532
1.910;-2.778498;-0.817744
1.920;-2.781510;-0.801932
1.930;-2.784190;-0.787388
1.940;-2.786888;-0.774180
1.950;-2.789966;-0.762137
1.960;-2.793718;-0.750885
1.970;-2.798300;-0.739915
1.980;-2.803676;-0.728697
1.990;-2.809575;-0.716822
2.000;-2.815499;-0.704160
2.010;-2.820770;-0.690946
2.020;-2.824667;-0.677759
2.030;-2.826592;-0.665365
2.040;-2.826245;-0.654488
2.050;-2.823737;-0.645613
2.060;-2.819587;-0.638862
2.070;-2.814570;-0.633989
2.080;-2.809452;-0.630448
2.090;-2.804720;-0.627508
2.100;-2.800448;-0.624397
2.110;-2.796338;-0.620473
2.120;-2.791912;-0.615402
2.130;-2.786725;-0.609305
2.140;-2.780504;-0.602784
2.150;-2.773199;-0.596767
2.160;-2.764955;-0.592215
2.170;-2.756058;-0.589794
2.180;-2.746869;-0.589660
2.190;-2.737752;-0.591437
2.200;-2.728987;-0.594365
2.210;-2.720678;-0.597534
2.220;-2.712682;-0.600128
2.230;-2.704623;-0.601627
2.240;-2.695996;-0.601940
2.250;-2.686320;-0.601423
2.260;-2.675261;-0.600763
2.270;-2.662661;-0.600758
2.280;-2.648500;-0.602095
2.290;-2.632818;-0.605181
2.300;-2.615682;-0.610088
2.310;-2.597210;-0.616559
2.320;-2.577656;-0.624089
2.330;-2.557515;-0.632044
2.340;-2.537581;-0.639827
2.350;-2.518879;-0.647000
2.360;-2.502474;-0.653337
2.370;-2.489199;-0.658776
2.380;-2.479436;-0.663320
2.390;-2.473048;-0.666937
2.400;-2.469498;-0.669526
2.410;-2.468066;-0.670953
2.420;-2.468069;-0.671113
2.430;-2.468980;-0.669984
2.440;-2.470441;-0.667644
2.450;-2.472177;-0.664284
2.460;-2.473915;-0.660205
2.470;-2.475361;-0.655789
2.480;-2.476270;-0.651406
2.490;-2.476545;-0.647314
2.500;-2.476312;-0.643592
2.510;-2.475890;-0.640168
2.520;-2.475697;-0.636890
2.530;-2.476122;-0.633616
2.540;-2.477428;-0.630246
2.550;-2.479723;-0.626732
2.560;-2.482985;-0.623076
2.570;-2.487096;-0.619310
2.580;-2.491837;-0.615483
2.590;-2.496854;-0.611637
2.600;-2.501632;-0.607809
2.610;-2.505553;-0.604038
2.620;-2.508069;-0.600368
2.630;-2.508925;-0.596827
2.640;-2.508316;-0.593411
2.650;-2.506850;-0.590084
2.660;-2.505312;-0.586807
2.670;-2.504345;-0.583585
2.680;-2.504203;-0.580509
2.690;-2.504688;-0.577791
2.700;-2.505273;-0.575737
2.710;-2.505331;-0.574648
2.720;-2.504368;-0.574643
2.730;-2.502159;-0.575507
2.740;-2.498786;-0.576640
2.750;-2.494557;-0.577165
2.760;-2.489897;-0.576186
2.770;-2.485246;-0.573125
2.780;-2.480976;-0.567998
2.790;-2.477328;-0.561503
2.800;-2.474377;-0.554831
2.810;-2.472036;-0.549262
2.820;-2.470101;-0.545722
2.830;-2.468303;-0.544481
2.840;-2.466379;-0.545108
2.850;-2.464148;-0.546655
2.860;-2.461588;-0.548000
2.870;-2.458899;-0.548194
2.880;-2.456483;-0.546699
2.890;-2.454837;-0.543478
2.900;-2.454396;-0.538930
2.910;-2.455362;-0.533728
2.920;-2.457609;-0.528597
2.930;-2.460672;-0.524086
2.940;-2.463837;-0.520412
2.950;-2.466309;-0.517445
2.960;-2.467439;-0.514826
2.970;-2.466935;-0.512157
2.980;-2.464992;-0.509160
2.990;-2.462269;-0.505758
3.000;-2.459716;-0.502089
3.010;-2.458298;-0.498474
3.020;-2.458734;-0.495338
3.030;-2.461321;-0.493087
3.040;-2.465899;-0.491964
3.050;-2.471935;-0.491968
3.060;-2.478666;-0.492864
3.070;-2.485270;-0.494277
3.080;-2.491023;-0.495807
3.090;-2.495450;-0.497100
3.100;-2.498431;-0.497888
3.110;-2.500246;-0.498004
3.120;-2.501493;-0.497393
3.130;-2.502909;-0.496098
3.140;-2.505157;-0.494236
3.150;-2.508634;-0.491941
3.160;-2.513377;-0.489308
3.170;-2.519064;-0.486334
3.180;-2.525106;-0.482894
3.190;-2.530780;-0.478767
3.200;-2.535391;-0.473741
3.210;-2.538440;-0.467728
3.220;-2.539747;-0.460851
3.230;-2.539503;-0.453449
3.240;-2.538234;-0.446011
3.250;-2.536692;-0.439068
3.260;-2.535688;-0.433064
3.270;-2.535884;-0.428244
3.280;-2.537590;-0.424580
3.290;-2.540663;-0.421748
3.300;-2.544545;-0.419170
3.310;-2.548446;-0.416120
3.320;-2.551585;-0.411908
3.330;-2.553399;-0.406102
3.340;-2.553629;-0.398715
3.350;-2.552341;-0.390243
3.360;-2.549894;-0.381538
3.370;-2.546873;-0.373532
3.380;-2.543967;-0.366941
3.390;-2.541771;-0.362023
3.400;-2.540605;-0.358502
3.410;-2.540449;-0.355680
3.420;-2.541004;-0.352698
3.430;-2.541838;-0.348822
3.440;-2.542496;-0.343665
3.450;-2.542551;-0.337263
3.460;-2.541605;-0.330049
3.470;-2.539309;-0.322735
3.480;-2.535408;-0.316156
3.490;-2.529810;-0.311082
3.500;-2.522644;-0.308049
3.510;-2.514263;-0.307241
3.520;-2.505176;-0.308466
3.530;-2.495929;-0.311260
3.540;-2.486953;-0.315068
3.550;-2.478442;-0.319429
3.560;-2.470314;-0.324048
3.570;-2.462286;-0.328740
3.580;-2.454028;-0.333318
3.590;-2.445318;-0.337510
3.600;-2.436121;-0.341005
3.610;-2.426571;-0.343591
3.620;-2.416899;-0.345303
3.630;-2.407345;-0.346492
3.640;-2.398103;-0.347748
3.650;-2.389285;-0.349706
3.660;-2.380907;-0.352814
3.670;-2.372870;-0.357178
3.680;-2.364984;-0.362553
3.690;-2.357013;-0.368486
3.700;-2.348755;-0.374531
3.710;-2.340102;-0.380409
3.720;-2.331068;-0.386053
3.730;-2.321785;-0.391521
3.740;-2.312476;-0.396882
3.750;-2.303416;-0.402140
3.760;-2.294871;-0.407250
3.770;-2.287034;-0.412193
3.780;-2.279983;-0.417031
3.790;-2.273687;-0.421878
3.800;-2.268044;-0.426819
3.810;-2.262933;-0.431841
3.820;-2.258250;-0.436820
3.830;-2.253922;-0.441543
3.840;-2.249905;-0.445750
3.850;-2.246173;-0.449195
3.860;-2.242718;-0.451714
3.870;-2.239557;-0.453301
3.880;-2.236729;-0.454127
3.890;-2.234248;-0.454507
3.900;-2.232027;-0.454807
3.910;-2.229843;-0.455354
3.920;-2.227371;-0.456366
3.930;-2.224278;-0.457935
3.940;-2.220307;-0.460030
3.950;-2.215342;-0.462489
3.960;-2.209448;-0.464980
3.970;-2.202904;-0.466973
3.980;-2.196213;-0.467776
3.990;-2.190072;-0.466664
4.000;-2.185270;-0.463073
4.010;-2.182520;-0.456812
4.020;-2.182271;-0.448195
4.030;-2.184521;-0.438033
4.040;-2.188718;-0.427461
4.050;-2.193783;-0.417653
4.060;-2.198312;-0.409532
4.070;-2.200932;-0.403574
4.080;-2.200706;-0.399794
4.090;-2.197427;-0.397902
4.100;-2.191668;-0.397545
4.110;-2.184599;-0.398523
4.120;-2.177663;-0.400867
4.130;-2.172237;-0.404759
4.140;-2.169366;-0.410371
4.150;-2.169586;-0.417708
4.160;-2.172850;-0.426522
4.170;-2.178560;-0.436323
4.180;-2.185688;-0.446455
4.190;-2.192958;-0.456200
4.200;-2.199053;-0.464885
4.210;-2.202837;-0.471982
4.220;-2.203567;-0.477226
4.230;-2.201033;-0.480714
4.240;-2.195556;-0.482925
4.250;-2.187825;-0.484611
4.260;-2.178624;-0.486570
4.270;-2.168590;-0.489404
4.280;-2.158098;-0.493380
4.290;-2.147309;-0.498424
4.300;-2.136283;-0.504208
4.310;-2.125094;-0.510240
4.320;-2.113869;-0.515941
4.330;-2.102768;-0.520730
4.340;-2.091910;-0.524155
4.350;-2.081323;-0.526032
4.360;-2.070956;-0.526533
4.370;-2.060770;-0.526159
4.380;-2.050865;-0.525596
4.390;-2.041555;-0.525485
4.400;-2.033356;-0.526217
4.410;-2.026867;-0.527816
4.420;-2.022566;-0.529979
4.430;-2.020611;-0.532252
4.440;-2.020724;-0.534269
4.450;-2.022230;-0.535944
4.460;-2.024225;-0.537500
4.470;-2.025812;-0.539339
4.480;-2.026318;-0.541797
4.490;-2.025433;-0.544949
4.500;-2.023243;-0.548538
4.510;-2.020138;-0.552062
4.520;-2.016676;-0.554939
4.530;-2.013434;-0.556686
4.540;-2.010914;-0.557059
4.550;-2.009456;-0.556145
4.560;-2.009142;-0.554390
4.570;-2.009687;-0.552527
4.580;-2.010397;-0.551380
4.590;-2.010283;-0.551599
4.600;-2.008304;-0.553474
4.610;-2.003673;-0.556922
4.620;-1.996095;-0.561656
4.630;-1.985864;-0.567411
4.640;-1.973788;-0.574071
4.650;-1.960988;-0.581632
4.660;-1.948625;-0.590054
4.670;-1.937633;-0.599096
4.680;-1.928523;-0.608250
4.690;-1.921295;-0.616817
4.700;-1.915510;-0.624096
4.710;-1.910491;-0.629594
4.720;-1.905591;-0.633152
4.730;-1.900406;-0.634960
4.740;-1.894864;-0.635488
4.750;-1.889165;-0.635373
4.760;-1.883651;-0.635298
4.770;-1.878676;-0.635869
4.780;-1.874539;-0.637486
4.790;-1.871460;-0.640227
4.800;-1.869547;-0.643804
4.810;-1.868745;-0.647655
4.820;-1.868787;-0.651144
4.830;-1.869238;-0.653768
4.840;-1.869618;-0.655267
4.850;-1.869578;-0.655600
4.860;-1.869035;-0.654864
4.870;-1.868162;-0.653201
4.880;-1.867253;-0.650748
4.890;-1.866539;-0.647622
4.900;-1.866065;-0.643947
4.910;-1.865719;-0.639906
4.920;-1.865344;-0.635780
4.930;-1.864876;-0.631930
4.940;-1.864390;-0.628726
4.950;-1.864031;-0.626444
4.960;-1.863886;-0.625195
4.970;-1.863910;-0.624886
4.980;-1.863945;-0.625228
4.990;-1.863831;-0.625784
5.000;-1.863513;-0.626079
5.010;-1.863066;-0.625784
5.020;-1.862622;-0.624883
5.030;-1.862256;-0.623731
5.040;-1.861930;-0.622927
5.050;-1.861527;-0.623069
5.060;-1.860949;-0.624524
5.070;-1.860162;-0.627334
5.080;-1.859133;-0.631276
5.090;-1.857683;-0.636014
5.100;-1.855382;-0.641265
5.110;-1.851603;-0.646874
5.120;-1.845759;-0.652784
5.130;-1.837630;-0.658945
5.140;-1.827586;-0.665241
5.150;-1.816565;-0.671480
5.160;-1.805791;-0.677459
5.170;-1.796344;-0.683053
5.180;-1.788772;-0.688279
5.190;-1.782944;-0.693318
5.200;-1.778159;-0.698488
5.210;-1.773474;-0.704173
5.220;-1.768090;-0.710715
5.230;-1.761637;-0.718284
5.240;-1.754282;-0.726795
5.250;-1.746646;-0.735921
5.260;-1.739567;-0.745194
5.270;-1.733827;-0.754153
5.280;-1.729917;-0.762443
5.290;-1.727942;-0.769863
5.300;-1.727628;-0.776355
5.310;-1.728427;-0.781945
5.320;-1.729663;-0.786647
5.330;-1.730696;-0.790383
5.340;-1.731054;-0.792940
5.350;-1.730484;-0.794023
5.360;-1.728938;-0.793363
5.370;-1.726497;-0.790866
5.380;-1.723321;-0.786720
5.390;-1.719622;-0.781429
5.400;-1.715671;-0.775734
5.410;-1.711793;-0.770436
5.420;-1.708331;-0.766208
5.430;-1.705561;-0.763421
5.440;-1.703600;-0.762067
5.450;-1.702340;-0.761778
5.460;-1.701444;-0.761957
5.470;-1.700403;-0.761967
5.480;-1.698643;-0.761320
5.490;-1.695646;-0.759779
5.500;-1.691091;-0.757354
5.510;-1.684975;-0.754204
5.520;-1.677654;-0.750520
5.530;-1.669778;-0.746496
5.540;-1.662134;-0.742366
5.550;-1.655444;-0.738468
5.560;-1.650192;-0.735202
5.570;-1.646538;-0.732899
5.580;-1.644305;-0.731641
5.590;-1.643062;-0.731169
5.600;-1.642261;-0.730916
5.610;-1.641417;-0.730155
5.620;-1.640277;-0.728174
5.630;-1.638936;-0.724420
5.640;-1.637842;-0.718600
5.650;-1.637678;-0.710741
5.660;-1.639151;-0.701203
5.670;-1.642777;-0.690624
5.680;-1.648741;-0.679792
5.690;-1.656887;-0.669488
5.700;-1.666803;-0.660330
5.710;-1.677944;-0.652662
5.720;-1.689728;-0.646487
5.730;-1.701614;-0.641461
5.740;-1.713152;-0.636970
5.750;-1.724035;-0.632269
5.760;-1.734140;-0.626673
5.770;-1.743560;-0.619745
5.780;-1.752619;-0.611394
5.790;-1.761857;-0.601846
5.800;-1.771963;-0.591448
5.810;-1.783632;-0.580421
5.820;-1.797340;-0.568667
5.830;-1.813114;-0.555765
5.840;-1.830394;-0.541161
5.850;-1.848112;-0.524474
5.860;-1.864970;-0.505760
5.870;-1.879822;-0.485593
5.880;-1.892006;-0.464929
5.890;-1.901489;-0.444850
5.900;-1.908829;-0.426299
5.910;-1.915001;-0.409928
5.920;-1.921181;-0.396061
5.930;-1.928550;-0.384718
5.940;-1.938103;-0.375666
5.950;-1.950468;-0.368462
5.960;-1.965732;-0.362549
5.970;-1.983360;-0.357406
5.980;-2.002286;-0.352709
5.990;-2.021194;-0.348432
6.000;-2.038903;-0.344817
6.010;-2.054698;-0.342256
6.020;-2.068488;-0.341127
6.030;-2.080730;-0.341652
6.040;-2.092217;-0.343826
6.050;-2.103804;-0.347404
6.060;-2.116176;-0.351965
6.070;-2.129673;-0.357025
6.080;-2.144190;-0.362164
6.090;-2.159190;-0.367119
6.100;-2.173822;-0.371817
6.110;-2.187141;-0.376343
6.120;-2.198360;-0.380874
6.130;-2.207062;-0.385596
6.140;-2.213301;-0.390660
6.150;-2.217577;-0.396180
6.160;-2.220696;-0.402271
6.170;-2.223564;-0.409068
6.180;-2.226964;-0.416680
6.190;-2.231356;-0.425068
6.200;-2.236742;-0.433937
6.210;-2.242659;-0.442715
6.220;-2.248314;-0.450699
6.230;-2.252881;-0.457290
6.240;-2.255855;-0.462199
6.250;-2.257344;-0.465533
6.260;-2.258118;-0.467725
6.270;-2.259408;-0.469349
6.280;-2.262510;-0.470895
6.290;-2.268375;-0.472603
6.300;-2.277332;-0.474417
6.310;-2.289023;-0.476096
6.320;-2.302556;-0.477398
6.330;-2.316778;-0.478265
6.340;-2.330563;-0.478897
6.350;-2.343034;-0.479711
6.360;-2.353667;-0.481196
6.370;-2.362302;-0.483756
6.380;-2.369068;-0.487579
6.390;-2.374275;-0.492587
6.400;-2.378318;-0.498441
6.410;-2.381614;-0.504610
6.420;-2.384533;-0.510463
6.430;-2.387344;-0.515387
6.440;-2.390179;-0.518897
6.450;-2.393067;-0.520714
6.460;-2.396006;-0.520814
6.470;-2.399054;-0.519414
6.480;-2.402374;-0.516908
6.490;-2.406231;-0.513777
6.500;-2.410960;-0.510500
6.510;-2.416902;-0.507493
6.520;-2.424347;-0.505078
6.530;-2.433496;-0.503474
6.540;-2.444430;-0.502801
6.550;-2.457048;-0.503049
6.560;-2.470968;-0.504019
6.570;-2.485440;-0.505285
6.580;-2.499384;-0.506255
6.590;-2.511611;-0.506356
6.600;-2.521167;-0.505276
6.610;-2.527635;-0.503110
6.620;-2.531271;-0.500316
6.630;-2.532885;-0.497490
6.640;-2.533558;-0.495107
6.650;-2.534311;-0.493341
6.660;-2.535872;-0.492052
6.670;-2.538580;-0.490897
6.680;-2.542371;-0.489500
6.690;-2.546810;-0.487592
6.700;-2.551177;-0.485102
6.710;-2.554636;-0.482179
6.720;-2.556485;-0.479151
6.730;-2.556403;-0.476439
6.740;-2.554558;-0.474444
6.750;-2.551535;-0.473433
6.760;-2.548092;-0.473465
6.770;-2.544875;-0.474359
6.780;-2.542200;-0.475717
6.790;-2.540003;-0.476996
6.800;-2.537937;-0.477633
6.810;-2.535564;-0.477212
6.820;-2.532570;-0.475614
6.830;-2.528915;-0.473066
6.840;-2.524871;-0.470025
6.850;-2.520897;-0.466936
6.860;-2.517404;-0.463998
6.870;-2.514524;-0.461078
6.880;-2.512016;-0.457810
6.890;-2.509364;-0.453777
6.900;-2.505978;-0.448666
6.910;-2.501430;-0.442361
6.920;-2.495642;-0.434989
6.930;-2.488979;-0.426930
6.940;-2.482232;-0.418765
6.950;-2.476460;-0.411137
6.960;-2.472689;-0.404569
6.970;-2.471581;-0.399324
6.980;-2.473179;-0.395359
6.990;-2.476866;-0.392374
7.000;-2.481523;-0.389930
7.010;-2.485840;-0.387582
7.020;-2.488645;-0.385004
7.030;-2.489166;-0.382040
7.040;-2.487164;-0.378700
7.050;-2.482918;-0.375091
7.060;-2.477120;-0.371323
7.070;-2.470698;-0.367417
7.080;-2.464586;-0.363258
7.090;-2.459499;-0.358611
7.100;-2.455739;-0.353196
7.110;-2.453114;-0.346787
7.120;-2.451023;-0.339327
7.130;-2.448667;-0.331035
7.140;-2.445341;-0.322469
7.150;-2.440680;-0.314486
7.160;-2.434782;-0.308068
7.170;-2.428157;-0.304038
7.180;-2.421526;-0.302804
7.190;-2.415579;-0.304238
7.200;-2.410779;-0.307755
7.210;-2.407267;-0.312548
7.220;-2.404882;-0.317882
7.230;-2.403268;-0.323282
7.240;-2.402046;-0.328574
7.250;-2.400950;-0.333778
7.260;-2.399894;-0.338977
7.270;-2.398920;-0.344213
7.280;-2.398086;-0.349465
7.290;-2.397382;-0.354659
7.300;-2.396699;-0.359701
7.310;-2.395886;-0.364527
7.320;-2.394833;-0.369155
7.330;-2.393558;-0.373747
7.340;-2.392264;-0.378608
7.350;-2.391329;-0.384089
7.360;-2.391212;-0.390401
7.370;-2.392290;-0.397447
7.380;-2.394684;-0.404776
7.390;-2.398184;-0.411697
7.400;-2.402301;-0.417497
7.410;-2.406427;-0.421646
7.420;-2.410041;-0.423931
7.430;-2.412891;-0.424481
7.440;-2.415075;-0.423717
7.450;-2.416966;-0.422244
7.460;-2.419016;-0.420710
7.470;-2.421501;-0.419656
7.480;-2.424381;-0.419375
7.490;-2.427324;-0.419810
7.500;-2.429876;-0.420540
7.510;-2.431703;-0.420879
7.520;-2.432774;-0.420089
7.530;-2.433426;-0.417632
7.540;-2.434267;-0.413356
7.550;-2.435969;-0.407549
7.560;-2.439028;-0.400808
7.570;-2.443604;-0.393806
7.580;-2.449522;-0.387039
7.590;-2.456401;-0.380664
7.600;-2.463825;-0.374496
7.610;-2.471470;-0.368120
7.620;-2.479124;-0.361100
7.630;-2.486616;-0.353166
7.640;-2.493736;-0.344305
7.650;-2.500218;-0.334692
7.660;-2.505821;-0.324492
7.670;-2.510447;-0.313625
7.680;-2.514211;-0.301637
