Time[s];COPx[cm];COPy[cm]
0.010;-0.698328;2.146951
0.020;-0.705077;2.116719
0.030;-0.710745;2.084968
0.040;-0.714603;2.050598
0.050;-0.716419;2.013153
0.060;-0.716420;1.972894
0.070;-0.715090;1.930676
0.080;-0.712922;1.887697
0.090;-0.710220;1.845184
0.100;-0.707004;1.804124
0.110;-0.703050;1.765126
0.120;-0.698021;1.728451
0.130;-0.691659;1.694171
0.140;-0.683967;1.662345
0.150;-0.675293;1.633160
0.160;-0.666267;1.606981
0.170;-0.657602;1.584317
0.180;-0.649862;1.565705
0.190;-0.643315;1.551545
0.200;-0.637947;1.541960
0.210;-0.633611;1.536747
0.220;-0.630209;1.535435
0.230;-0.627797;1.537420
0.240;-0.626572;1.542130
0.250;-0.626792;1.549158
0.260;-0.628693;1.558320
0.270;-0.632428;1.569596
0.280;-0.638025;1.582990
0.290;-0.645353;1.598360
0.300;-0.654119;1.615295
0.310;-0.663916;1.633111
0.320;-0.674324;1.650977
0.330;-0.685025;1.668154
0.340;-0.695887;1.684214
0.350;-0.706987;1.699164
0.360;-0.718562;1.713379
0.370;-0.730919;1.727371
0.380;-0.744363;1.741531
0.390;-0.759168;1.755951
0.400;-0.775618;1.770443
0.410;-0.794058;1.784703
0.420;-0.814909;1.798532
0.430;-0.838595;1.811977
0.440;-0.865404;1.825297
0.450;-0.895327;1.838806
0.460;-0.927966;1.852686
0.470;-0.962586;1.866894
0.480;-0.998293;1.881190
0.490;-1.034288;1.895225
0.500;-1.070063;1.908644
0.510;-1.105420;1.921130
0.520;-1.140317;1.932439
0.530;-1.174635;1.942443
0.540;-1.208008;1.951181
0.550;-1.239811;1.958870
0.560;-1.269296;1.965830
0.570;-1.295792;1.972365
0.580;-1.318898;1.978645
0.590;-1.338602;1.984649
0.600;-1.355280;1.990174
0.610;-1.369594;1.994890
0.620;-1.382290;1.998453
0.630;-1.394022;2.000654
0.640;-1.405236;2.001544
0.650;-1.416168;2.001469
0.660;-1.426913;2.000961
0.670;-1.437527;2.000554
0.680;-1.448108;2.000579
0.690;-1.458829;2.001038
0.700;-1.469906;2.001571
0.710;-1.481515;2.001545
0.720;-1.493686;2.000227
0.730;-1.506254;1.997012
0.740;-1.518887;1.991628
0.750;-1.531222;1.984233
0.760;-1.543017;1.975373
0.770;-1.554243;1.965801
0.780;-1.565069;1.956248
0.790;-1.575751;1.947214
0.800;-1.586512;1.938865
0.810;-1.597437;1.931049
0.820;-1.608435;1.923392
0.830;-1.619257;1.915437
0.840;-1.629572;1.906792
0.850;-1.639081;1.897251
0.860;-1.647629;1.886894
0.870;-1.655272;1.876119
0.880;-1.662291;1.865587
0.890;-1.669145;1.856055
0.900;-1.676389;1.848153
0.910;-1.684551;1.842195
0.920;-1.694001;1.838128
0.930;-1.704860;1.835626
0.940;-1.716989;1.834259
0.950;-1.730046;1.833626
0.960;-1.743575;1.833390
0.970;-1.757110;1.833259
0.980;-1.770255;1.832957
0.990;-1.782725;1.832218
1.000;-1.794347;1.830794
1.010;-1.805032;1.828477
1.020;-1.814720;1.825135
1.030;-1.823306;1.820742
1.040;-1.830572;1.815392
1.050;-1.836168;1.809289
1.060;-1.839677;1.802746
1.070;-1.840751;1.796179
1.080;-1.839274;1.790061
1.090;-1.835470;1.784811
1.100;-1.829876;1.780670
1.110;-1.823153;1.777614
1.120;-1.815801;1.775371
1.130;-1.807927;1.773532
1.140;-1.799176;1.771704
1.150;-1.788831;1.769634
1.160;-1.776027;1.767264
1.170;-1.759953;1.764710
1.180;-1.740003;1.762199
1.190;-1.715862;1.759973
1.200;-1.687535;1.758161
1.210;-1.655343;1.756653
1.220;-1.619867;1.755055
1.230;-1.581870;1.752773
1.240;-1.542178;1.749244
1.250;-1.501546;1.744217
1.260;-1.460556;1.737935
1.270;-1.419592;1.731120
1.280;-1.378911;1.724756
1.290;-1.338771;1.719746
1.300;-1.299525;1.716578
1.310;-1.261627;1.715122
1.320;-1.225543;1.714649
1.330;-1.191595;1.714055
1.340;-1.159823;1.712195
1.350;-1.129916;1.708222
1.360;-1.101252;1.701830
1.370;-1.073058;1.693345
1.380;-1.044622;1.683625
1.390;-1.015513;1.673805
1.400;-0.985710;1.664945
1.410;-0.955603;1.657708
1.420;-0.925868;1.652140
1.430;-0.897263;1.647686
1.440;-0.870426;1.643447
1.450;-0.845769;1.638591
1.460;-0.823490;1.632723
1.470;-0.803694;1.626031
1.480;-0.786521;1.619147
1.490;-0.772214;1.612837
1.500;-0.761066;1.607676
1.510;-0.753290;1.603868
1.520;-0.748883;1.601262
1.530;-0.747543;1.599532
1.540;-0.748701;1.598373
1.550;-0.751639;1.597623
1.560;-0.755655;1.597244
1.570;-0.760211;1.597238
1.580;-0.765054;1.597598
1.590;-0.770272;1.598346
1.600;-0.776312;1.599612
1.610;-0.783945;1.601672
1.620;-0.794167;1.604880
1.630;-0.808038;1.609536
1.640;-0.826496;1.615769
1.650;-0.850187;1.623495
1.660;-0.879385;1.632459
1.670;-0.913980;1.642338
1.680;-0.953520;1.652873
1.690;-0.997278;1.663987
1.700;-1.044349;1.675832
1.710;-1.093775;1.688734
1.720;-1.144697;1.703042
1.730;-1.196503;1.718959
1.740;-1.248925;1.736430
1.750;-1.302042;1.755140
1.760;-1.356123;1.774597
1.770;-1.411330;1.794231
1.780;-1.467401;1.813481
1.790;-1.523454;1.831858
1.800;-1.578037;1.849015
1.810;-1.629385;1.864830
1.820;-1.675765;1.879436
1.830;-1.715776;1.893179
1.840;-1.748528;1.906485
1.850;-1.773718;1.919711
1.860;-1.791587;1.933062
1.870;-1.802783;1.946606
1.880;-1.808146;1.960367
1.890;-1.808482;1.974458
1.900;-1.804415;1.989135
1.910;-1.796345;2.004733
1.920;-1.784503;2.021496
1.930;-1.769047;2.039391
1.940;-1.750148;2.058040
1.950;-1.728032;2.076795
1.960;-1.702958;2.094917
1.970;-1.675164;2.111730
1.980;-1.644820;2.126692
1.990;-1.612053;2.139373
2.000;-1.577049;2.149380
2.010;-1.540205;2.156321
2.020;-1.502232;2.159847
2.030;-1.464154;2.159770
2.040;-1.427160;2.156202
2.050;-1.392346;2.149612
2.060;-1.360437;2.140742
2.070;-1.331606;2.130412
2.080;-1.305479;2.119298
2.090;-1.281317;2.107822
2.100;-1.258289;2.096196
2.110;-1.235733;2.084546
2.120;-1.213282;2.072979
2.130;-1.190834;2.061538
2.140;-1.168389;2.050082
2.150;-1.145850;2.038213
2.160;-1.122905;2.025340
2.170;-1.099044;2.010872
2.180;-1.073705;1.994464
2.190;-1.046460;1.976186
2.200;-1.017165;1.956517
2.210;-0.986018;1.936161
2.220;-0.953507;1.915757
2.230;-0.920287;1.895643
2.240;-0.887006;1.875790
2.250;-0.854144;1.855917
2.260;-0.821940;1.835720
2.270;-0.790410;1.815088
2.280;-0.759444;1.794207
2.290;-0.728917;1.773527
2.300;-0.698771;1.753633
2.310;-0.669040;1.735085
2.320;-0.639834;1.718303
2.330;-0.611299;1.703513
2.340;-0.583578;1.690751
2.350;-0.556776;1.679910
2.360;-0.530948;1.670800
2.370;-0.506075;1.663225
2.380;-0.482039;1.657016
2.390;-0.458608;1.652048
2.400;-0.435479;1.648249
2.410;-0.412370;1.645618
2.420;-0.389139;1.644248
2.430;-0.365866;1.644323
2.440;-0.342856;1.646095
2.450;-0.320553;1.649827
2.460;-0.299396;1.655740
2.470;-0.279684;1.663952
2.480;-0.261476;1.674468
2.490;-0.244574;1.687233
2.500;-0.228579;1.702213
2.510;-0.213028;1.719436
2.520;-0.197543;1.738957
2.530;-0.181941;1.760768
2.540;-0.166249;1.784728
2.550;-0.150649;1.810564
2.560;-0.135404;1.837941
2.570;-0.120817;1.866524
2.580;-0.107232;1.895975
2.590;-0.095006;1.925890
2.600;-0.084447;1.955715
2.610;-0.075726;1.984735
2.620;-0.068825;2.012158
2.630;-0.063564;2.037294
2.640;-0.059679;2.059747
2.650;-0.056923;2.079513
2.660;-0.055092;2.096940
2.670;-0.054004;2.112547
2.680;-0.053454;2.126784
2.690;-0.053225;2.139865
2.700;-0.053167;2.151730
2.710;-0.053285;2.162180
2.720;-0.053755;2.171054
2.730;-0.054848;2.178358
2.740;-0.056780;2.184260
2.750;-0.059583;2.188991
2.760;-0.063068;2.192693
2.770;-0.066889;2.195323
2.780;-0.070691;2.196657
2.790;-0.074262;2.196425
2.800;-0.077599;2.194476
2.810;-0.080871;2.190879
2.820;-0.084320;2.185872
2.830;-0.088158;2.179697
2.840;-0.092516;2.172428
2.850;-0.097454;2.163897
2.860;-0.103007;2.153764
2.870;-0.109219;2.141675
2.880;-0.116137;2.127437
2.890;-0.123751;2.111138
2.900;-0.131949;2.093157
2.910;-0.140514;2.074084
2.920;-0.149173;2.054567
2.930;-0.157627;2.035152
2.940;-0.165565;2.016162
2.950;-0.172660;1.997654
2.960;-0.178613;1.979478
2.970;-0.183244;1.961391
2.980;-0.186540;1.943162
2.990;-0.188615;1.924657
3.000;-0.189599;1.905857
3.010;-0.189537;1.886844
3.020;-0.188377;1.867749
3.030;-0.186042;1.848712
3.040;-0.182534;1.829875
3.050;-0.177964;1.811376
3.060;-0.172492;1.793325
3.070;-0.166238;1.775742
3.080;-0.159248;1.758520
3.090;-0.151585;1.741445
3.100;-0.143475;1.724287
3.110;-0.135427;1.706899
3.120;-0.128206;1.689298
3.130;-0.122664;1.671662
3.140;-0.119500;1.654289
3.150;-0.119067;1.637507
3.160;-0.121302;1.621590
3.170;-0.125814;1.606690
3.180;-0.132066;1.592813
3.190;-0.139580;1.579821
3.200;-0.148073;1.567469
3.210;-0.157514;1.555499
3.220;-0.168083;1.543744
3.230;-0.180061;1.532207
3.240;-0.193702;1.521077
3.250;-0.209124;1.510696
3.260;-0.226254;1.501506
3.270;-0.244862;1.493988
3.280;-0.264649;1.488611
3.290;-0.285365;1.485746
3.300;-0.306900;1.485593
3.310;-0.329346;1.488162
3.320;-0.353016;1.493323
3.330;-0.378439;1.500902
3.340;-0.406303;1.510774
3.350;-0.437351;1.522891
3.360;-0.472265;1.537222
3.370;-0.511558;1.553633
3.380;-0.555500;1.571784
3.390;-0.604087;1.591131
3.400;-0.657041;1.611053
3.410;-0.713835;1.631037
3.420;-0.773756;1.650803
3.430;-0.835971;1.670296
3.440;-0.899583;1.689552
3.450;-0.963653;1.708542
3.460;-1.027215;1.727090
3.470;-1.089318;1.744925
3.480;-1.149083;1.761809
3.490;-1.205754;1.777666
3.500;-1.258691;1.792602
3.510;-1.307328;1.806821
3.520;-1.351125;1.820481
3.530;-1.389567;1.833605
3.540;-1.422261;1.846099
3.550;-1.449095;1.857835
3.560;-1.470397;1.868732
3.570;-1.487005;1.878791
3.580;-1.500172;1.888089
3.590;-1.511333;1.896742
3.600;-1.521783;1.904853
3.610;-1.532390;1.912441
3.620;-1.543414;1.919420
3.630;-1.554513;1.925649
3.640;-1.564916;1.931040
3.650;-1.573726;1.935643
3.660;-1.580240;1.939625
3.670;-1.584189;1.943168
3.680;-1.585798;1.946326
3.690;-1.585650;1.948955
3.700;-1.584390;1.950730
3.710;-1.582406;1.951225
3.720;-1.579611;1.950050
3.730;-1.575444;1.946997
3.740;-1.569100;1.942180
3.750;-1.559871;1.936060
3.760;-1.547406;1.929309
3.770;-1.531781;1.922514
3.780;-1.513390;1.915892
3.790;-1.492764;1.909184
3.800;-1.470419;1.901779
3.810;-1.446776;1.892996
3.820;-1.422149;1.882371
3.830;-1.396759;1.869834
3.840;-1.370750;1.855739
3.850;-1.344187;1.840758
3.860;-1.317005;1.825659
3.870;-1.288978;1.811067
3.880;-1.259742;1.797266
3.890;-1.228907;1.784142
3.900;-1.196231;1.771267
3.910;-1.161779;1.758085
3.920;-1.126007;1.744118
3.930;-1.089730;1.729077
3.940;-1.053994;1.712882
3.950;-1.019881;1.695597
3.960;-0.988324;1.677350
3.970;-0.959981;1.658306
3.980;-0.935204;1.638678
3.990;-0.914095;1.618751
4.000;-0.896602;1.598895
4.010;-0.882606;1.579513
4.020;-0.871993;1.560934
4.030;-0.864678;1.543282
4.040;-0.860603;1.526406
4.050;-0.859702;1.509950
4.060;-0.861853;1.493536
4.070;-0.866854;1.476966
4.080;-0.874434;1.460335
4.090;-0.884286;1.444014
4.100;-0.896129;1.428529
4.110;-0.909776;1.414429
4.120;-0.925184;1.402174
4.130;-0.942443;1.392073
4.140;-0.961709;1.384234
4.150;-0.983099;1.378545
4.160;-1.006588;1.374710
4.170;-1.031954;1.372350
4.180;-1.058780;1.371146
4.190;-1.086534;1.370924
4.200;-1.114711;1.371653
4.210;-1.142971;1.373369
4.220;-1.171210;1.376099
4.230;-1.199530;1.379825
4.240;-1.228138;1.384514
4.250;-1.257234;1.390160
4.260;-1.286926;1.396801
4.270;-1.317180;1.404469
4.280;-1.347806;1.413079
4.290;-1.378464;1.422317
4.300;-1.408681;1.431611
4.310;-1.437857;1.440237
4.320;-1.465313;1.447536
4.330;-1.490382;1.453130
4.340;-1.512564;1.457057
4.350;-1.531684;1.459718
4.360;-1.547967;1.461698
4.370;-1.562000;1.463520
4.380;-1.574568;1.465470
4.390;-1.586427;1.467567
4.400;-1.598064;1.469663
4.410;-1.609502;1.471578
4.420;-1.620230;1.473199
4.430;-1.629288;1.474516
4.440;-1.635517;1.475589
4.450;-1.637876;1.476495
4.460;-1.635686;1.477264
4.470;-1.628761;1.477840
4.480;-1.617388;1.478091
4.490;-1.602236;1.477857
4.500;-1.584194;1.477008
4.510;-1.564164;1.475475
4.520;-1.542838;1.473253
4.530;-1.520544;1.470399
4.540;-1.497213;1.467021
4.550;-1.472471;1.463263
4.560;-1.445835;1.459230
4.570;-1.416936;1.454925
4.580;-1.385688;1.450235
4.590;-1.352365;1.445013
4.600;-1.317553;1.439212
4.610;-1.281981;1.433013
4.620;-1.246327;1.426852
4.630;-1.211060;1.421309
4.640;-1.176414;1.416875
4.650;-1.142489;1.413742
4.660;-1.109413;1.411742
4.670;-1.077466;1.410475
4.680;-1.047098;1.409513
4.690;-1.018821;1.408561
4.700;-0.993034;1.407466
4.710;-0.969870;1.406138
4.720;-0.949144;1.404474
4.730;-0.930431;1.402346
4.740;-0.913229;1.399672
4.750;-0.897094;1.396491
4.760;-0.881704;1.393002
4.770;-0.866838;1.389545
4.780;-0.852339;1.386539
4.790;-0.838143;1.384393
4.800;-0.824345;1.383406
4.810;-0.811256;1.383677
4.820;-0.799377;1.385093
4.830;-0.789278;1.387375
4.840;-0.781433;1.390167
4.850;-0.776095;1.393110
4.860;-0.773246;1.395907
4.870;-0.772646;1.398392
4.880;-0.773939;1.400582
4.890;-0.776755;1.402693
4.900;-0.780750;1.405064
4.910;-0.785592;1.408022
4.920;-0.790937;1.411745
4.930;-0.796440;1.416220
4.940;-0.801810;1.421317
4.950;-0.806843;1.426910
4.960;-0.811408;1.432971
4.970;-0.815381;1.439557
4.980;-0.818601;1.446748
4.990;-0.820882;1.454593
5.000;-0.822083;1.463118
5.010;-0.822158;1.472361
5.020;-0.821166;1.482389
5.030;-0.819220;1.493276
5.040;-0.816415;1.505046
5.050;-0.812785;1.517618
5.060;-0.808288;1.530809
5.070;-0.802831;1.544361
5.080;-0.796308;1.557966
5.090;-0.788636;1.571276
5.100;-0.779757;1.583923
5.110;-0.769630;1.595596
5.120;-0.758192;1.606166
5.130;-0.745320;1.615801
5.140;-0.730800;1.624997
5.150;-0.714337;1.634488
5.160;-0.695618;1.645050
5.170;-0.674396;1.657273
5.180;-0.650574;1.671384
5.190;-0.624253;1.687196
5.200;-0.595722;1.704204
5.210;-0.565431;1.721767
5.220;-0.533952;1.739279
5.230;-0.501920;1.756272
5.240;-0.469970;1.772456
5.250;-0.438669;1.787718
5.260;-0.408475;1.802108
5.270;-0.379730;1.815781
5.280;-0.352667;1.828933
5.290;-0.327415;1.841706
5.300;-0.304017;1.854093
5.310;-0.282452;1.865877
5.320;-0.262700;1.876628
5.330;-0.244779;1.885802
5.340;-0.228752;1.892916
5.350;-0.214661;1.897738
5.360;-0.202435;1.900363
5.370;-0.191834;1.901166
5.380;-0.182480;1.900635
5.390;-0.173952;1.899199
5.400;-0.165916;1.897129
5.410;-0.158240;1.894538
5.420;-0.151049;1.891454
5.430;-0.144723;1.887883
5.440;-0.139837;1.883856
5.450;-0.137053;1.879405
5.460;-0.136976;1.874520
5.470;-0.140004;1.869107
5.480;-0.146224;1.862977
5.490;-0.155376;1.855877
5.500;-0.166918;1.847549
5.510;-0.180140;1.837781
5.520;-0.194284;1.826433
5.530;-0.208620;1.813417
5.540;-0.222497;1.798684
5.550;-0.235403;1.782232
5.560;-0.247050;1.764155
5.570;-0.257470;1.744711
5.580;-0.267039;1.724343
5.590;-0.276381;1.703615
5.600;-0.286173;1.683087
5.610;-0.296918;1.663156
5.620;-0.308812;1.643941
5.630;-0.321727;1.625262
5.640;-0.335327;1.606734
5.650;-0.349232;1.587962
5.660;-0.363158;1.568765
5.670;-0.376982;1.549351
5.680;-0.390721;1.530356
5.690;-0.404459;1.512717
5.700;-0.418271;1.497433
5.710;-0.432171;1.485266
5.720;-0.446099;1.476521
5.730;-0.459891;1.470985
5.740;-0.473247;1.468037
5.750;-0.485708;1.466904
5.760;-0.496705;1.466925
5.770;-0.505663;1.467752
5.780;-0.512117;1.469407
5.790;-0.515761;1.472183
5.800;-0.516404;1.476423
5.810;-0.513877;1.482327
5.820;-0.507969;1.489870
5.830;-0.498411;1.498886
5.840;-0.484912;1.509216
5.850;-0.467238;1.520817
5.860;-0.445313;1.533744
5.870;-0.419324;1.548003
5.880;-0.389802;1.563390
5.890;-0.357654;1.579397
5.900;-0.324087;1.595266
5.910;-0.290443;1.610171
5.920;-0.257945;1.623448
5.930;-0.227424;1.634782
5.940;-0.199138;1.644256
5.950;-0.172735;1.652249
5.960;-0.147406;1.659234
5.970;-0.122177;1.665567
5.980;-0.096220;1.671335
5.990;-0.069116;1.676341
6.000;-0.040988;1.680207
6.010;-0.012494;1.682575
6.020;0.015298;1.683313
6.030;0.041131;1.682604
6.040;0.063845;1.680853
6.050;0.082661;1.678449
6.060;0.097423;1.675528
6.070;0.108694;1.671884
6.080;0.117639;1.667076
6.090;0.125706;1.660669
6.100;0.134183;1.652480
6.110;0.143805;1.642707
6.120;0.154572;1.631902
6.130;0.165852;1.620798
6.140;0.176705;1.610080
6.150;0.186304;1.600169
6.160;0.194265;1.591100
6.170;0.200794;1.582532
6.180;0.206585;1.573887
6.190;0.212521;1.564586
6.200;0.219295;1.554282
6.210;0.227103;1.542993
6.220;0.235530;1.531076
6.230;0.243650;1.519081
6.240;0.250304;1.507549
6.250;0.254443;1.496864
6.260;0.255416;1.487202
6.270;0.253091;1.478588
6.280;0.247811;1.471014
6.290;0.240203;1.464538
6.300;0.230967;1.459292
6.310;0.220699;1.455411
6.320;0.209826;1.452930
6.330;0.198620;1.451737
6.340;0.187248;1.451597
6.350;0.175794;1.452237
6.360;0.164238;1.453453
6.370;0.152425;1.455184
6.380;0.140064;1.457536
6.390;0.126800;1.460713
6.400;0.112349;1.464892
6.410;0.096636;1.470087
6.420;0.079860;1.476090
6.430;0.062438;1.482500
6.440;0.044831;1.488846
6.450;0.027362;1.494737
6.460;0.010095;1.499977
6.470;-0.007157;1.504618
6.480;-0.024713;1.508938
6.490;-0.042848;1.513344
6.500;-0.061621;1.518258
6.510;-0.080770;1.524006
6.520;-0.099721;1.530742
6.530;-0.117703;1.538424
6.540;-0.133951;1.546817
6.550;-0.147914;1.555546
6.560;-0.159420;1.564166
6.570;-0.168756;1.572266
6.580;-0.176597;1.579580
6.590;-0.183806;1.586054
6.600;-0.191161;1.591831
6.610;-0.199126;1.597132
6.620;-0.207746;1.602121
6.630;-0.216678;1.606841
6.640;-0.225306;1.611253
6.650;-0.232908;1.615316
6.660;-0.238810;1.619029
6.670;-0.242518;1.622423
6.680;-0.243796;1.625533
6.690;-0.242706;1.628408
6.700;-0.239585;1.631150
6.710;-0.234962;1.633917
6.720;-0.229434;1.636895
6.730;-0.223535;1.640220
6.740;-0.217625;1.643923
6.750;-0.211834;1.647890
6.760;-0.206078;1.651862
6.770;-0.200128;1.655486
6.780;-0.193712;1.658406
6.790;-0.186588;1.660391
6.800;-0.178592;1.661447
6.810;-0.169677;1.661842
6.820;-0.159982;1.662028
6.830;-0.149924;1.662475
6.840;-0.140221;1.663526
6.850;-0.131788;1.665314
6.860;-0.125501;1.667758
6.870;-0.121921;1.670630
6.880;-0.121111;1.673643
6.890;-0.122643;1.676533
6.900;-0.125782;1.679125
6.910;-0.129758;1.681362
6.920;-0.134018;1.683295
6.930;-0.138351;1.685043
6.940;-0.142852;1.686735
6.950;-0.147763;1.688480
6.960;-0.153306;1.690335
6.970;-0.159596;1.692272
6.980;-0.166701;1.694141
6.990;-0.174746;1.695677
7.000;-0.183993;1.696579
7.010;-0.194813;1.696630
7.020;-0.207606;1.695799
7.030;-0.222681;1.694289
7.040;-0.240170;1.692499
7.050;-0.259982;1.690907
7.060;-0.281824;1.689882
7.070;-0.305285;1.689511
7.080;-0.329950;1.689563
7.090;-0.355514;1.689620
7.100;-0.381848;1.689337
7.110;-0.409047;1.688677
7.120;-0.437420;1.687997
7.130;-0.467453;1.687918
7.140;-0.499710;1.689048
7.150;-0.534730;1.691698
7.160;-0.572934;1.695763
7.170;-0.614570;1.700806
7.180;-0.659667;1.706259
7.190;-0.707984;1.711618
7.200;-0.758940;1.716535
7.210;-0.811558;1.720836
7.220;-0.864488;1.724481
7.230;-0.916145;1.727528
7.240;-0.964950;1.730095
7.250;-1.009614;1.732332
7.260;-1.049335;1.734378
7.270;-1.083852;1.736315
7.280;-1.113322;1.738131
7.290;-1.138089;1.739723
7.300;-1.158478;1.740952
7.310;-1.174691;1.741729
7.320;-1.186851;1.742097
7.330;-1.195118;1.742259
7.340;-1.199812;1.742528
7.350;-1.201451;1.743246
7.360;-1.200701;1.744717
7.370;-1.198258;1.747179
7.380;-1.194736;1.750794
7.390;-1.190596;1.755635
7.400;-1.186152;1.761649
7.410;-1.181602;1.768641
7.420;-1.177056;1.776281
7.430;-1.172532;1.784127
7.440;-1.167930;1.791669
7.450;-1.163056;1.798402
7.460;-1.157680;1.803913
7.470;-1.151649;1.807970
7.480;-1.144940;1.810569
7.490;-1.137642;1.811909
7.500;-1.129822;1.812308
7.510;-1.121364;1.812112
7.520;-1.111859;1.811620
7.530;-1.100638;1.811043
7.540;-1.086946;1.810479
7.550;-1.070151;1.809906
7.560;-1.049891;1.809211
7.570;-1.026101;1.808249
7.580;-0.998946;1.806935
7.590;-0.968723;1.805299
7.600;-0.935778;1.803475
7.610;-0.900457;1.801619
7.620;-0.863063;1.799797
7.630;-0.823824;1.797922
7.640;-0.782853;1.795760
7.650;-0.740123;1.793011
7.660;-0.695479;1.789413
7.670;-0.648681;1.784820
7.680;-0.599479;1.779224
7.690;-0.547684;1.772726
7.700;-0.493239;1.765503
7.710;-0.436302;1.757793
7.720;-0.377305;1.749889
7.730;-0.316969;1.742103
7.740;-0.256236;1.734679
7.750;-0.196136;1.727679
7.760;-0.137605;1.720913
7.770;-0.081323;1.713951
7.780;-0.027611;1.706250
7.790;0.023561;1.697346
7.800;0.072433;1.687042
7.810;0.119245;1.675519
7.820;0.164030;1.663302
7.830;0.206507;1.651068
7.840;0.246129;1.639381
7.850;0.282222;1.628476
7.860;0.314161;1.618193
7.870;0.341506;1.608082
7.880;0.364099;1.597644
7.890;0.382112;1.586583
7.900;0.396045;1.574984
7.910;0.406661;1.563312
7.920;0.414873;1.552241
7.930;0.421597;1.542388
7.940;0.427628;1.534079
7.950;0.433551;1.527262
7.960;0.439671;1.521564
7.970;0.445973;1.516440
7.980;0.452126;1.511361
7.990;0.457564;1.505963
8.000;0.461642;1.500126
8.010;0.463783;1.493950
