Time[s];COPx[cm];COPy[cm]
0.010;-3.149416;0.006693
0.020;-3.115369;0.002294
0.030;-3.077412;-0.004079
0.040;-3.032196;-0.013870
0.050;-2.977284;-0.027626
0.060;-2.911339;-0.044928
0.070;-2.834061;-0.064548
0.080;-2.745936;-0.084777
0.090;-2.647943;-0.103836
0.100;-2.541367;-0.120274
0.110;-2.427770;-0.133250
0.120;-2.309094;-0.142646
0.130;-2.187748;-0.149018
0.140;-2.066565;-0.153425
0.150;-1.948557;-0.157199
0.160;-1.836537;-0.161659
0.170;-1.732740;-0.167787
0.180;-1.638529;-0.175968
0.190;-1.554264;-0.185860
0.200;-1.479360;-0.196475
0.210;-1.412530;-0.206443
0.220;-1.352182;-0.214390
0.230;-1.296859;-0.219316
0.240;-1.245597;-0.220823
0.250;-1.198080;-0.219102
0.260;-1.154535;-0.214717
0.270;-1.115434;-0.208303
0.280;-1.081155;-0.200338
0.290;-1.051754;-0.191103
0.300;-1.026907;-0.180812
0.310;-1.005997;-0.169787
0.320;-0.988265;-0.158550
0.330;-0.972972;-0.147763
0.340;-0.959526;-0.138073
0.350;-0.947527;-0.129934
0.360;-0.936717;-0.123531
0.370;-0.926839;-0.118788
0.380;-0.917479;-0.115453
0.390;-0.907970;-0.113172
0.400;-0.897387;-0.111555
0.410;-0.884604;-0.110220
0.420;-0.868390;-0.108810
0.430;-0.847539;-0.106991
0.440;-0.821046;-0.104440
0.450;-0.788325;-0.100877
0.460;-0.749390;-0.096132
0.470;-0.704906;-0.090223
0.480;-0.656059;-0.083354
0.490;-0.604305;-0.075787
0.500;-0.551093;-0.067677
0.510;-0.497725;-0.058960
0.520;-0.445380;-0.049389
0.530;-0.395276;-0.038708
0.540;-0.348851;-0.026870
0.550;-0.307891;-0.014240
0.560;-0.274504;-0.001694
0.570;-0.250958;0.009410
0.580;-0.239383;0.017450
0.590;-0.241430;0.020979
0.600;-0.257943;0.019305
0.610;-0.288721;0.012986
0.620;-0.332444;0.003965
0.630;-0.386863;-0.004791
0.640;-0.449297;-0.010081
0.650;-0.517337;-0.009406
0.660;-0.589496;-0.001731
0.670;-0.665467;0.012226
0.680;-0.745885;0.030284
0.690;-0.831697;0.049539
0.700;-0.923434;0.067252
0.710;-1.020641;0.081581
0.720;-1.121583;0.091986
0.730;-1.223267;0.099235
0.740;-1.321710;0.105044
0.750;-1.412422;0.111468
0.760;-1.491027;0.120227
0.770;-1.553929;0.132199
0.780;-1.598834;0.147223
0.790;-1.625014;0.164244
0.800;-1.633213;0.181697
0.810;-1.625302;0.197956
0.820;-1.603784;0.211739
0.830;-1.571344;0.222390
0.840;-1.530522;0.229994
0.850;-1.483592;0.235317
0.860;-1.432591;0.239557
0.870;-1.379434;0.243964
0.880;-1.326039;0.249447
0.890;-1.274354;0.256283
0.900;-1.226272;0.264079
0.910;-1.183458;0.271986
0.920;-1.147188;0.279074
0.930;-1.118291;0.284648
0.940;-1.097225;0.288392
0.950;-1.084256;0.290278
0.960;-1.079650;0.290358
0.970;-1.083772;0.288574
0.980;-1.097019;0.284710
0.990;-1.119561;0.278546
1.000;-1.150970;0.270130
1.010;-1.189883;0.260024
1.020;-1.233909;0.249349
1.030;-1.279887;0.239558
1.040;-1.324439;0.232020
1.050;-1.364577;0.227618
1.060;-1.398121;0.226562
1.070;-1.423785;0.228483
1.080;-1.440977;0.232686
1.090;-1.449510;0.238404
1.100;-1.449364;0.244982
1.110;-1.440577;0.251982
1.120;-1.423191;0.259259
1.130;-1.397199;0.266981
1.140;-1.362439;0.275532
1.150;-1.318511;0.285287
1.160;-1.264815;0.296357
1.170;-1.200787;0.308452
1.180;-1.126286;0.320965
1.190;-1.041969;0.333281
1.200;-0.949455;0.345110
1.210;-0.851194;0.356701
1.220;-0.750072;0.368795
1.230;-0.648943;0.382377
1.240;-0.550247;0.398323
1.250;-0.455800;0.417100
1.260;-0.366770;0.438624
1.270;-0.283789;0.462339
1.280;-0.207151;0.487447
1.290;-0.137048;0.513188
1.300;-0.073768;0.539030
1.310;-0.017785;0.564737
1.320;0.030270;0.590353
1.330;0.069712;0.616136
1.340;0.099938;0.642455
1.350;0.120536;0.669656
1.360;0.131357;0.697903
1.370;0.132535;0.727043
1.380;0.124426;0.756529
1.390;0.107524;0.785449
1.400;0.082401;0.812643
1.410;0.049765;0.836937
1.420;0.010595;0.857398
1.430;-0.033728;0.873523
1.440;-0.081399;0.885256
1.450;-0.130354;0.892859
1.460;-0.178538;0.896710
1.470;-0.224195;0.897159
1.480;-0.266063;0.894477
1.490;-0.303437;0.888895
1.500;-0.336106;0.880676
1.510;-0.364224;0.870209
1.520;-0.388213;0.858097
1.530;-0.408722;0.845211
1.540;-0.426621;0.832699
1.550;-0.442940;0.821906
1.560;-0.458720;0.814206
1.570;-0.474800;0.810770
1.580;-0.491625;0.812296
1.590;-0.509178;0.818792
1.600;-0.527089;0.829506
1.610;-0.544889;0.843059
1.620;-0.562317;0.857778
1.630;-0.579546;0.872130
1.640;-0.597252;0.885095
1.650;-0.616532;0.896344
1.660;-0.638720;0.906174
1.670;-0.665198;0.915213
1.680;-0.697254;0.924039
1.690;-0.735989;0.932861
1.700;-0.782226;0.941407
1.710;-0.836386;0.949040
1.720;-0.898328;0.955029
1.730;-0.967262;0.958839
1.740;-1.041835;0.960279
1.750;-1.120417;0.959483
1.760;-1.201491;0.956763
1.770;-1.283914;0.952461
1.780;-1.366896;0.946882
1.790;-1.449726;0.940324
1.800;-1.531423;0.933149
1.810;-1.610555;0.925791
1.820;-1.685362;0.918705
1.830;-1.754097;0.912250
1.840;-1.815434;0.906632
1.850;-1.868718;0.901943
1.860;-1.913996;0.898288
1.870;-1.951856;0.895906
1.880;-1.983206;0.895183
1.890;-2.009078;0.896517
1.900;-2.030534;0.900090
1.910;-2.048654;0.905693
1.920;-2.064593;0.912688
1.930;-2.079678;0.920173
1.940;-2.095507;0.927292
1.950;-2.113989;0.933557
1.960;-2.137307;0.939022
1.970;-2.167807;0.944191
1.980;-2.207790;0.949676
1.990;-2.259213;0.955771
2.000;-2.323279;0.962175
2.010;-2.400012;0.968025
2.020;-2.487953;0.972254
2.030;-2.584140;0.974096
2.040;-2.684468;0.973466
2.050;-2.784380;0.971026
2.060;-2.879706;0.967919
2.070;-2.967370;0.965312
2.080;-3.045746;0.964011
2.090;-3.114551;0.964316
2.100;-3.174390;0.966134
2.110;-3.226159;0.969235
2.120;-3.270577;0.973451
2.130;-3.308008;0.978716
2.140;-3.338574;0.984943
2.150;-3.362461;0.991853
2.160;-3.380205;0.998904
2.170;-3.392820;1.005397
2.180;-3.401714;1.010680
2.190;-3.408449;1.014324
2.200;-3.414452;1.016178
2.210;-3.420810;1.016287
2.220;-3.428171;1.014769
2.230;-3.436772;1.011729
2.240;-3.446560;1.007247
2.250;-3.457390;1.001431
2.260;-3.469224;0.994455
2.270;-3.482281;0.986542
2.280;-3.497022;0.977897
2.290;-3.513975;0.968629
2.300;-3.533460;0.958751
2.310;-3.555355;0.948313
2.320;-3.578988;0.937610
2.330;-3.603203;0.927288
2.340;-3.626552;0.918226
2.350;-3.647538;0.911222
2.360;-3.664845;0.906660
2.370;-3.677505;0.904377
2.380;-3.684982;0.903830
2.390;-3.687187;0.904482
2.400;-3.684435;0.906215
2.410;-3.677373;0.909545
2.420;-3.666850;0.915549
2.430;-3.653727;0.925494
2.440;-3.638637;0.940325
2.450;-3.621743;0.960222
2.460;-3.602591;0.984442
2.470;-3.580148;1.011522
2.480;-3.553007;1.039737
2.490;-3.519707;1.067578
2.500;-3.479049;1.094067
2.510;-3.430366;1.118835
2.520;-3.373708;1.141982
2.530;-3.309949;1.163806
2.540;-3.240815;1.184472
2.550;-3.168797;1.203738
2.560;-3.096947;1.220818
2.570;-3.028532;1.234468
2.580;-2.966642;1.243255
2.590;-2.913809;1.245923
2.600;-2.871749;1.241721
2.610;-2.841257;1.230572
2.620;-2.822238;1.213057
2.630;-2.813841;1.190246
2.640;-2.814618;1.163470
2.650;-2.822671;1.134122
2.660;-2.835772;1.103499
2.670;-2.851518;1.072658
2.680;-2.867537;1.042288
2.690;-2.881763;1.012649
2.700;-2.892701;0.983636
2.710;-2.899575;0.954967
2.720;-2.902311;0.926445
2.730;-2.901312;0.898155
2.740;-2.897160;0.870492
2.750;-2.890356;0.844007
2.760;-2.881188;0.819199
2.770;-2.869722;0.796365
2.780;-2.855856;0.775623
2.790;-2.839403;0.757044
2.800;-2.820187;0.740811
2.810;-2.798148;0.727294
2.820;-2.773434;0.716973
2.830;-2.746438;0.710257
2.840;-2.717747;0.707270
2.850;-2.688032;0.707722
2.860;-2.657896;0.710925
2.870;-2.627783;0.715915
2.880;-2.598021;0.721641
2.890;-2.568970;0.727142
2.900;-2.541209;0.731684
2.910;-2.515609;0.734838
2.920;-2.493243;0.736478
2.930;-2.475126;0.736711
2.940;-2.461904;0.735747
2.950;-2.453616;0.733747
2.960;-2.449658;0.730713
2.970;-2.448946;0.726460
2.980;-2.450210;0.720681
2.990;-2.452272;0.713084
3.000;-2.454177;0.703539
3.010;-2.455133;0.692200
3.020;-2.454309;0.679507
3.030;-2.450672;0.666076
3.040;-2.442959;0.652493
3.050;-2.429833;0.639063
3.060;-2.410115;0.625614
3.070;-2.382968;0.611436
3.080;-2.347971;0.595443
3.090;-2.305085;0.576516
3.100;-2.254581;0.553873
3.110;-2.196984;0.527296
3.120;-2.133109;0.497153
3.130;-2.064157;0.464254
3.140;-1.991809;0.429643
3.150;-1.918216;0.394394
3.160;-1.845796;0.359443
3.170;-1.776884;0.325482
3.180;-1.713357;0.292933
3.190;-1.656383;0.262009
3.200;-1.606411;0.232810
3.210;-1.563390;0.205384
3.220;-1.527096;0.179722
3.230;-1.497381;0.155714
3.240;-1.474250;0.133154
3.250;-1.457735;0.111818
3.260;-1.447655;0.091611
3.270;-1.443354;0.072705
3.280;-1.443542;0.055573
3.290;-1.446335;0.040848
3.300;-1.449512;0.029036
3.310;-1.450911;0.020223
3.320;-1.448798;0.013923
3.330;-1.442062;0.009168
3.340;-1.430211;0.004798
3.350;-1.413192;-0.000110
3.360;-1.391168;-0.005851
3.370;-1.364323;-0.011931
3.380;-1.332752;-0.017242
3.390;-1.296450;-0.020496
3.400;-1.255400;-0.020690
3.410;-1.209711;-0.017389
3.420;-1.159763;-0.010719
3.430;-1.106317;-0.001162
3.440;-1.050567;0.010693
3.450;-0.994085;0.024294
3.460;-0.938655;0.039133
3.470;-0.885993;0.054682
3.480;-0.837430;0.070349
3.490;-0.793693;0.085545
3.500;-0.754857;0.099831
3.510;-0.720505;0.113026
3.520;-0.690017;0.125209
3.530;-0.662866;0.136573
3.540;-0.638803;0.147263
3.550;-0.617869;0.157253
3.560;-0.600231;0.166300
3.570;-0.585928;0.173941
3.580;-0.574646;0.179500
3.590;-0.565656;0.182125
3.600;-0.557960;0.180850
3.610;-0.550604;0.174675
3.620;-0.542998;0.162630
3.630;-0.535146;0.143822
3.640;-0.527685;0.117502
3.650;-0.521736;0.083195
3.660;-0.518593;0.040902
3.670;-0.519354;-0.008679
3.680;-0.524592;-0.064046
3.690;-0.534171;-0.123008
3.700;-0.547263;-0.183035
3.710;-0.562562;-0.241734
3.720;-0.578656;-0.297283
3.730;-0.594497;-0.348650
3.740;-0.609838;-0.395523
3.750;-0.625427;-0.438026
3.760;-0.642822;-0.476388
3.770;-0.663861;-0.510758
3.780;-0.690010;-0.541211
3.790;-0.721860;-0.567866
3.800;-0.758981;-0.590960
3.810;-0.800148;-0.610805
3.820;-0.843803;-0.627654
3.830;-0.888562;-0.641564
3.840;-0.933586;-0.652349
3.850;-0.978718;-0.659629
3.860;-1.024356;-0.662938
3.870;-1.071108;-0.661815
3.880;-1.119332;-0.655888
3.890;-1.168723;-0.644953
3.900;-1.218116;-0.629097
3.910;-1.265610;-0.608805
3.920;-1.308982;-0.584996
3.930;-1.346246;-0.558922
3.940;-1.376154;-0.531910
3.950;-1.398442;-0.505031
3.960;-1.413798;-0.478822
3.970;-1.423591;-0.453238
3.980;-1.429520;-0.427882
3.990;-1.433294;-0.402395
4.000;-1.436397;-0.376817
4.010;-1.439934;-0.351731
4.020;-1.444602;-0.328136
4.030;-1.450810;-0.307151
4.040;-1.458979;-0.289714
4.050;-1.469907;-0.276414
4.060;-1.485045;-0.267489
4.070;-1.506524;-0.262979
4.080;-1.536884;-0.262914
4.090;-1.578603;-0.267468
4.100;-1.633582;-0.277005
4.110;-1.702705;-0.292015
4.120;-1.785566;-0.312958
4.130;-1.880424;-0.340037
4.140;-1.984460;-0.372970
4.150;-2.094318;-0.410892
4.160;-2.206763;-0.452458
4.170;-2.319187;-0.496145
4.180;-2.429738;-0.540583
4.190;-2.537094;-0.584773
4.200;-2.640082;-0.628128
4.210;-2.737455;-0.670382
4.220;-2.827968;-0.711486
4.230;-2.910718;-0.751537
4.240;-2.985503;-0.790736
4.250;-3.052965;-0.829295
4.260;-3.114416;-0.867278
4.270;-3.171457;-0.904426
4.280;-3.225628;-0.940099
4.290;-3.278233;-0.973377
4.300;-3.330370;-1.003314
4.310;-3.382996;-1.029200
4.320;-3.436942;-1.050686
4.330;-3.492797;-1.067693
4.340;-3.550738;-1.080196
4.350;-3.610370;-1.088052
4.360;-3.670664;-1.090986
4.370;-3.730010;-1.088742
4.380;-3.786409;-1.081294
4.390;-3.837755;-1.068988
4.400;-3.882189;-1.052577
4.410;-3.918426;-1.033139
4.420;-3.945986;-1.011933
4.430;-3.965236;-0.990241
4.440;-3.977224;-0.969220
4.450;-3.983372;-0.949804
4.460;-3.985112;-0.932680
4.470;-3.983557;-0.918310
4.480;-3.979274;-0.906972
4.490;-3.972177;-0.898775
4.500;-3.961583;-0.893621
4.510;-3.946382;-0.891145
4.520;-3.925229;-0.890653
4.530;-3.896678;-0.891094
4.540;-3.859206;-0.891122
4.550;-3.811273;-0.889273
4.560;-3.751555;-0.884253
4.570;-3.679432;-0.875310
4.580;-3.595612;-0.862563
4.590;-3.502585;-0.847187
4.600;-3.404579;-0.831328
4.610;-3.306890;-0.817731
4.620;-3.214764;-0.809128
4.630;-3.132235;-0.807577
4.640;-3.061335;-0.813934
4.650;-3.001840;-0.827628
4.660;-2.951569;-0.846777
4.670;-2.907066;-0.868606
4.680;-2.864469;-0.890037
4.690;-2.820392;-0.908245
4.700;-2.772635;-0.921034
4.710;-2.720610;-0.926989
4.720;-2.665362;-0.925439
4.730;-2.609181;-0.916326
4.740;-2.554898;-0.900004
4.750;-2.505090;-0.877028
4.760;-2.461469;-0.847948
4.770;-2.424633;-0.813162
4.780;-2.394228;-0.772849
4.790;-2.369416;-0.726998
4.800;-2.349418;-0.675516
4.810;-2.333916;-0.618362
4.820;-2.323141;-0.555644
4.830;-2.317665;-0.487640
4.840;-2.317980;-0.414749
4.850;-2.324075;-0.337475
4.860;-2.335183;-0.256519
4.870;-2.349810;-0.172986
4.880;-2.366030;-0.088550
4.890;-2.381947;-0.005434
4.900;-2.396162;0.073891
4.910;-2.408078;0.147181
4.920;-2.417910;0.212923
4.930;-2.426418;0.270668
4.940;-2.434469;0.321104
4.950;-2.442605;0.365839
4.960;-2.450753;0.406965
4.970;-2.458143;0.446530
4.980;-2.463445;0.486071
4.990;-2.465076;0.526305
5.000;-2.461582;0.567051
5.010;-2.451988;0.607376
5.020;-2.436031;0.645930
5.030;-2.414193;0.681369
5.040;-2.387530;0.712736
5.050;-2.357320;0.739662
5.060;-2.324651;0.762306
5.070;-2.290058;0.781128
5.080;-2.253346;0.796634
5.090;-2.213648;0.809225
5.100;-2.169737;0.819151
5.110;-2.120480;0.826555
5.120;-2.065287;0.831535
5.130;-2.004390;0.834229
5.140;-1.938860;0.834869
5.150;-1.870343;0.833746
5.160;-1.800623;0.831093
5.170;-1.731211;0.826919
5.180;-1.663094;0.820925
5.190;-1.596741;0.812570
5.200;-1.532314;0.801312
5.210;-1.469964;0.786969
5.220;-1.410056;0.770047
5.230;-1.353205;0.751857
5.240;-1.300136;0.734310
5.250;-1.251483;0.719423
5.260;-1.207639;0.708740
5.270;-1.168718;0.702906
5.280;-1.134614;0.701571
5.290;-1.105081;0.703638
5.300;-1.079839;0.707724
5.310;-1.058688;0.712648
5.320;-1.041597;0.717760
5.330;-1.028712;0.723005
5.340;-1.020189;0.728697
5.350;-1.015934;0.735133
5.360;-1.015392;0.742238
5.370;-1.017558;0.749414
5.380;-1.021230;0.755653
5.390;-1.025388;0.759824
5.400;-1.029473;0.761011
5.410;-1.033420;0.758769
5.420;-1.037468;0.753254
5.430;-1.041838;0.745193
5.440;-1.046454;0.735735
5.450;-1.050808;0.726195
5.460;-1.054037;0.717745
5.470;-1.055153;0.711170
5.480;-1.053321;0.706787
5.490;-1.048070;0.704549
5.500;-1.039339;0.704235
5.510;-1.027384;0.705594
5.520;-1.012607;0.708366
5.530;-0.995401;0.712206
5.540;-0.976089;0.716592
5.550;-0.954950;0.720795
5.560;-0.932336;0.723973
5.570;-0.908777;0.725348
5.580;-0.885033;0.724394
5.590;-0.862036;0.720960
5.600;-0.840736;0.715291
5.610;-0.821902;0.707963
5.620;-0.805957;0.699769
5.630;-0.792936;0.691551
5.640;-0.782668;0.683995
5.650;-0.775135;0.677409
5.660;-0.770861;0.671563
5.670;-0.771155;0.665639
5.680;-0.778075;0.658357
5.690;-0.794141;0.648271
5.700;-0.821873;0.634178
5.710;-0.863279;0.615507
5.720;-0.919473;0.592538
5.730;-0.990533;0.566297
5.740;-1.075685;0.538153
5.750;-1.173713;0.509258
5.760;-1.283362;0.480130
5.770;-1.403499;0.450606
5.780;-1.532920;0.420209
5.790;-1.669911;0.388751
5.800;-1.811838;0.356853
5.810;-1.955020;0.326075
5.820;-2.094989;0.298599
5.830;-2.227061;0.276607
5.840;-2.346987;0.261690
5.850;-2.451478;0.254519
5.860;-2.538433;0.254869
5.870;-2.606894;0.261864
5.880;-2.656820;0.274236
5.890;-2.688843;0.290508
5.900;-2.704102;0.309093
5.910;-2.704139;0.328438
5.920;-2.690774;0.347286
5.930;-2.665906;0.365034
5.940;-2.631269;0.382002
5.950;-2.588260;0.399433
5.960;-2.537930;0.419132
5.970;-2.481206;0.442849
5.980;-2.419243;0.471621
5.990;-2.353759;0.505358
6.000;-2.287143;0.542840
6.010;-2.222278;0.582084
6.020;-2.162113;0.620904
6.030;-2.109188;0.657411
6.040;-2.065273;0.690309
6.050;-2.031228;0.718979
6.060;-2.007058;0.743387
6.070;-1.992116;0.763899
6.080;-1.985411;0.781013
6.090;-1.985994;0.795072
6.100;-1.993317;0.806049
6.110;-2.007412;0.813521
6.120;-2.028763;0.816893
6.130;-2.057884;0.815799
6.140;-2.094792;0.810503
6.150;-2.138616;0.802101
6.160;-2.187559;0.792399
6.170;-2.239246;0.783496
6.180;-2.291355;0.777236
6.190;-2.342299;0.774739
6.200;-2.391673;0.776175
6.210;-2.440298;0.780819
6.220;-2.489837;0.787357
6.230;-2.542172;0.794325
6.240;-2.598774;0.800559
6.250;-2.660275;0.805493
6.260;-2.726291;0.809239
6.270;-2.795501;0.812450
6.280;-2.865936;0.816061
6.290;-2.935422;0.820961
6.300;-3.002073;0.827704
6.310;-3.064658;0.836315
6.320;-3.122687;0.846291
6.330;-3.176184;0.856797
6.340;-3.225258;0.866972
6.350;-3.269678;0.876221
6.360;-3.308648;0.884378
6.370;-3.340895;0.891731
6.380;-3.365039;0.898922
6.390;-3.380094;0.906744
6.400;-3.385856;0.915874
6.410;-3.383030;0.926621
6.420;-3.373076;0.938791
6.430;-3.357862;0.951750
6.440;-3.339261;0.964641
6.450;-3.318789;0.976671
6.460;-3.297279;0.987361
6.470;-3.274641;0.996687
6.480;-3.249794;1.005054
6.490;-3.220886;1.013117
6.500;-3.185841;1.021499
6.510;-3.143074;1.030548
6.520;-3.092134;1.040229
6.530;-3.033997;1.050162
6.540;-2.970898;1.059777
6.550;-2.905779;1.068491
6.560;-2.841593;1.075837
6.570;-2.780683;1.081527
6.580;-2.724409;1.085449
6.590;-2.673078;1.087650
6.600;-2.626199;1.088323
6.610;-2.582947;1.087798
6.620;-2.542725;1.086539
6.630;-2.505593;1.085141
6.640;-2.472442;1.084299
6.650;-2.444823;1.084753
6.660;-2.424524;1.087175
6.670;-2.413078;1.092007
6.680;-2.411446;1.099280
6.690;-2.420008;1.108495
6.700;-2.438835;1.118609
6.710;-2.467998;1.128174
6.720;-2.507660;1.135594
6.730;-2.557817;1.139425
6.740;-2.617807;1.138656
6.750;-2.685832;1.132914
6.760;-2.758802;1.122562
6.770;-2.832630;1.108663
6.780;-2.902945;1.092793
6.790;-2.965918;1.076741
6.800;-3.018937;1.062135
6.810;-3.060888;1.050096
6.820;-3.092031;1.041000
6.830;-3.113559;1.034445
6.840;-3.127009;1.029465
6.850;-3.133750;1.024922
6.860;-3.134672;1.019943
6.870;-3.130128;1.014215
6.880;-3.120060;1.008035
6.890;-3.104188;1.002109
6.900;-3.082167;0.997196
6.910;-3.053665;0.993708
6.920;-3.018355;0.991440
6.930;-2.975873;0.989589
6.940;-2.925812;0.987110
6.950;-2.867825;0.983285
6.960;-2.801867;0.978199
6.970;-2.728534;0.972837
6.980;-2.649365;0.968740
6.990;-2.566974;0.967416
7.000;-2.484881;0.969779
7.010;-2.407067;0.975839
7.020;-2.337303;0.984709
7.030;-2.278453;0.994901
7.040;-2.231958;1.004807
7.050;-2.197668;1.013205
7.060;-2.174084;1.019587
7.070;-2.158923;1.024191
7.080;-2.149839;1.027765
7.090;-2.145087;1.031205
7.100;-2.143925;1.035224
7.110;-2.146637;1.040146
7.120;-2.154141;1.045872
7.130;-2.167307;1.051988
7.140;-2.186222;1.057930
7.150;-2.209725;1.063131
7.160;-2.235421;1.067124
7.170;-2.260174;1.069609
7.180;-2.280879;1.070543
7.190;-2.295189;1.070213
7.200;-2.301985;1.069238
7.210;-2.301471;1.068448
7.220;-2.294941;1.068662
7.230;-2.284327;1.070475
7.240;-2.271686;1.074116
7.250;-2.258747;1.079386
7.260;-2.246610;1.085689
7.270;-2.235642;1.092141
7.280;-2.225562;1.097757
7.290;-2.215686;1.101675
7.300;-2.205242;1.103316
7.310;-2.193679;1.102457
7.320;-2.180851;1.099204
7.330;-2.167044;1.093912
7.340;-2.152850;1.087088
7.350;-2.138929;1.079314
7.360;-2.125748;1.071206
7.370;-2.113356;1.063388
7.380;-2.101266;1.056419
7.390;-2.088494;1.050684
7.400;-2.073741;1.046304
7.410;-2.055691;1.043150
7.420;-2.033318;1.040982
7.430;-2.006132;1.039632
7.440;-1.974294;1.039135
7.450;-1.938554;1.039740
7.460;-1.900057;1.041796
7.470;-1.860092;1.045600
7.480;-1.819896;1.051284
7.490;-1.780587;1.058798
7.500;-1.743184;1.067984
7.510;-1.708674;1.078670
7.520;-1.678035;1.090701
7.530;-1.652181;1.103872
7.540;-1.631859;1.117833
7.550;-1.617525;1.132011
7.560;-1.609263;1.145627
7.570;-1.606763;1.157825
7.580;-1.609412;1.167894
7.590;-1.616425;1.175508
7.600;-1.626984;1.180869
7.610;-1.640311;1.184656
7.620;-1.655653;1.187782
7.630;-1.672191;1.191083
7.640;-1.688944;1.195047
7.650;-1.704732;1.199672
7.660;-1.718245;1.204493
7.670;-1.728157;1.208722
7.680;-1.733240;1.211473
7.690;-1.732423;1.211968
7.700;-1.724833;1.209682
7.710;-1.709880;1.204361
7.720;-1.687401;1.195939
7.730;-1.657804;1.184395
7.740;-1.622102;1.169644
7.750;-1.581736;1.151518
7.760;-1.538243;1.129815
7.770;-1.492873;1.104356
7.780;-1.446324;1.075023
7.790;-1.398673;1.041772
7.800;-1.349539;1.004655
7.810;-1.298401;0.963867
7.820;-1.244969;0.919765
7.830;-1.189460;0.872844
7.840;-1.132705;0.823665
7.850;-1.076076;0.772789
7.860;-1.021273;0.720765
7.870;-0.970028;0.668189
7.880;-0.923801;0.615804
7.890;-0.883540;0.564520
7.900;-0.849562;0.515320
7.910;-0.821589;0.469062
