Time[s];COPx[cm];COPy[cm]
0.010;-2.395413;1.072340
0.020;-2.402512;1.058888
0.030;-2.410266;1.044628
0.040;-2.418889;1.029227
0.050;-2.427907;1.012963
0.060;-2.436269;0.996653
0.070;-2.442727;0.981322
0.080;-2.446305;0.967813
0.090;-2.446659;0.956518
0.100;-2.444173;0.947314
0.110;-2.439757;0.939682
0.120;-2.434451;0.932901
0.130;-2.429019;0.926286
0.140;-2.423695;0.919374
0.150;-2.418214;0.912024
0.160;-2.412091;0.904379
0.170;-2.405014;0.896732
0.180;-2.397139;0.889368
0.190;-2.389146;0.882453
0.200;-2.382031;0.876026
0.210;-2.376731;0.870054
0.220;-2.373743;0.864503
0.230;-2.372907;0.859385
0.240;-2.373426;0.854800
0.250;-2.374126;0.850977
0.260;-2.373854;0.848304
0.270;-2.371854;0.847276
0.280;-2.367995;0.848376
0.290;-2.362766;0.851916
0.300;-2.357083;0.857921
0.310;-2.351982;0.866096
0.320;-2.348330;0.875887
0.330;-2.346620;0.886609
0.340;-2.346902;0.897591
0.350;-2.348837;0.908273
0.360;-2.351840;0.918182
0.370;-2.355230;0.926819
0.380;-2.358345;0.933545
0.390;-2.360591;0.937565
0.400;-2.361432;0.938084
0.410;-2.360369;0.934613
0.420;-2.356987;0.927283
0.430;-2.351088;0.917005
0.440;-2.342864;0.905342
0.450;-2.333006;0.894096
0.460;-2.322640;0.884727
0.470;-2.313028;0.877846
0.480;-2.305102;0.872966
0.490;-2.299001;0.868647
0.500;-2.293795;0.862953
0.510;-2.287527;0.854046
0.520;-2.277588;0.840729
0.530;-2.261319;0.822755
0.540;-2.236678;0.800836
0.550;-2.202781;0.776330
0.560;-2.160162;0.750755
0.570;-2.110707;0.725334
0.580;-2.057266;0.700772
0.590;-2.003050;0.677355
0.600;-1.950974;0.655253
0.610;-1.903131;0.634830
0.620;-1.860562;0.616769
0.630;-1.823328;0.601947
0.640;-1.790814;0.591115
0.650;-1.762105;0.584557
0.660;-1.736301;0.581900
0.670;-1.712729;0.582224
0.680;-1.691010;0.584439
0.690;-1.671028;0.587743
0.700;-1.652840;0.591917
0.710;-1.636584;0.597311
0.720;-1.622433;0.604551
0.730;-1.610564;0.614121
0.740;-1.601138;0.626026
0.750;-1.594276;0.639711
0.760;-1.590048;0.654235
0.770;-1.588467;0.668578
0.780;-1.589488;0.681920
0.790;-1.593011;0.693823
0.800;-1.598868;0.704279
0.810;-1.606820;0.713640
0.820;-1.616571;0.722424
0.830;-1.627785;0.731086
0.840;-1.640108;0.739883
0.850;-1.653177;0.748934
0.860;-1.666640;0.758403
0.870;-1.680196;0.768648
0.880;-1.693653;0.780199
0.890;-1.706982;0.793548
0.900;-1.720319;0.808881
0.910;-1.733875;0.825882
0.920;-1.747801;0.843698
0.930;-1.762046;0.861059
0.940;-1.776285;0.876538
0.950;-1.789960;0.888874
0.960;-1.802364;0.897272
0.970;-1.812732;0.901599
0.980;-1.820294;0.902394
0.990;-1.824342;0.900695
1.000;-1.824323;0.897714
1.010;-1.819955;0.894507
1.020;-1.811302;0.891750
1.030;-1.798777;0.889689
1.040;-1.783075;0.888220
1.050;-1.765075;0.887038
1.060;-1.745729;0.885799
1.070;-1.725962;0.884265
1.080;-1.706605;0.882357
1.090;-1.688372;0.880100
1.100;-1.671868;0.877550
1.110;-1.657618;0.874779
1.120;-1.646061;0.871946
1.130;-1.637517;0.869358
1.140;-1.632151;0.867451
1.150;-1.629949;0.866710
1.160;-1.630738;0.867575
1.170;-1.634233;0.870364
1.180;-1.640121;0.875201
1.190;-1.648142;0.881942
1.200;-1.658117;0.890139
1.210;-1.669878;0.899079
1.220;-1.683129;0.907909
1.230;-1.697318;0.915838
1.240;-1.711676;0.922341
1.250;-1.725459;0.927288
1.260;-1.738312;0.930917
1.270;-1.750554;0.933656
1.280;-1.763187;0.935890
1.290;-1.777575;0.937812
1.300;-1.794950;0.939412
1.310;-1.815971;0.940624
1.320;-1.840530;0.941530
1.330;-1.867840;0.942499
1.340;-1.896741;0.944176
1.350;-1.926059;0.947274
1.360;-1.954892;0.952298
1.370;-1.982769;0.959331
1.380;-2.009654;0.968003
1.390;-2.035848;0.977631
1.400;-2.061818;0.987462
1.410;-2.087993;0.996870
1.420;-2.114595;1.005443
1.430;-2.141555;1.012964
1.440;-2.168536;1.019339
1.450;-2.195076;1.024546
1.460;-2.220770;1.028602
1.470;-2.245408;1.031551
1.480;-2.269000;1.033476
1.490;-2.291685;1.034492
1.500;-2.313558;1.034700
1.510;-2.334517;1.034100
1.520;-2.354181;1.032530
1.530;-2.371926;1.029685
1.540;-2.387044;1.025215
1.550;-2.398977;1.018868
1.560;-2.407524;1.010614
1.570;-2.412952;1.000735
1.580;-2.415945;0.989823
1.590;-2.417436;0.978666
1.600;-2.418429;0.968031
1.610;-2.419840;0.958440
1.620;-2.422401;0.950068
1.630;-2.426589;0.942780
1.640;-2.432589;0.936287
1.650;-2.440268;0.930311
1.660;-2.449210;0.924698
1.670;-2.458808;0.919446
1.680;-2.468430;0.914652
1.690;-2.477591;0.910379
1.700;-2.486072;0.906536
1.710;-2.493933;0.902870
1.720;-2.501411;0.899110
1.730;-2.508787;0.895184
1.740;-2.516308;0.891368
1.750;-2.524237;0.888251
1.760;-2.532962;0.886526
1.770;-2.543045;0.886692
1.780;-2.555102;0.888829
1.790;-2.569558;0.892532
1.800;-2.586429;0.897055
1.810;-2.605276;0.901592
1.820;-2.625309;0.905577
1.830;-2.645529;0.908869
1.840;-2.664798;0.911723
1.850;-2.681888;0.914596
1.860;-2.695576;0.917863
1.870;-2.704855;0.921606
1.880;-2.709222;0.925556
1.890;-2.708913;0.929211
1.900;-2.705003;0.932102
1.910;-2.699238;0.934062
1.920;-2.693653;0.935380
1.930;-2.690082;0.936729
1.940;-2.689760;0.938883
1.950;-2.693128;0.942375
1.960;-2.699896;0.947260
1.970;-2.709279;0.953101
1.980;-2.720311;0.959166
1.990;-2.732141;0.964767
2.000;-2.744227;0.969556
2.010;-2.756418;0.973625
2.020;-2.768917;0.977360
2.030;-2.782132;0.981152
2.040;-2.796465;0.985152
2.050;-2.812107;0.989195
2.060;-2.828915;0.992872
2.070;-2.846437;0.995692
2.080;-2.864066;0.997270
2.090;-2.881272;0.997472
2.100;-2.897803;0.996476
2.110;-2.913744;0.994731
2.120;-2.929431;0.992856
2.130;-2.945289;0.991508
2.140;-2.961699;0.991287
2.150;-2.978963;0.992672
2.160;-2.997346;0.995997
2.170;-3.017112;1.001462
2.180;-3.038475;1.009145
2.190;-3.061505;1.019034
2.200;-3.086066;1.031063
2.210;-3.111888;1.045150
2.220;-3.138750;1.061188
2.230;-3.166679;1.079012
2.240;-3.196018;1.098330
2.250;-3.227315;1.118705
2.260;-3.261083;1.139594
2.270;-3.297556;1.160438
2.280;-3.336557;1.180763
2.290;-3.377515;1.200269
2.300;-3.419603;1.218840
2.310;-3.461929;1.236478
2.320;-3.503727;1.253161
2.330;-3.544515;1.268709
2.340;-3.584203;1.282751
2.350;-3.623139;1.294805
2.360;-3.661995;1.304453
2.370;-3.701466;1.311505
2.380;-3.741841;1.316061
2.390;-3.782596;1.318464
2.400;-3.822215;1.319133
2.410;-3.858357;1.318363
2.420;-3.888338;1.316178
2.430;-3.909821;1.312339
2.440;-3.921436;1.306519
2.450;-3.923101;1.298563
2.460;-3.915931;1.288668
2.470;-3.901783;1.277377
2.480;-3.882640;1.265395
2.490;-3.860080;1.253346
2.500;-3.835017;1.241598
2.510;-3.807768;1.230240
2.520;-3.778364;1.219216
2.530;-3.746931;1.208542
2.540;-3.713950;1.198445
2.550;-3.680297;1.189298
2.560;-3.647077;1.181331
2.570;-3.615364;1.174320
2.580;-3.585997;1.167463
2.590;-3.559483;1.159582
2.600;-3.536014;1.149578
2.610;-3.515553;1.136899
2.620;-3.497932;1.121788
2.630;-3.482901;1.105164
2.640;-3.470082;1.088234
2.650;-3.458843;1.072022
2.660;-3.448161;1.057059
2.670;-3.436595;1.043331
2.680;-3.422441;1.030453
2.690;-3.404083;1.017939
2.700;-3.380418;1.005425
2.710;-3.351175;0.992738
2.720;-3.316938;0.979803
2.730;-3.278831;0.966516
2.740;-3.238021;0.952705
2.750;-3.195293;0.938245
2.760;-3.150923;0.923268
2.770;-3.104890;0.908305
2.780;-3.057266;0.894188
2.790;-3.008539;0.881721
2.800;-2.959663;0.871298
2.810;-2.911831;0.862750
2.820;-2.866099;0.855502
2.830;-2.823060;0.848928
2.840;-2.782708;0.842634
2.850;-2.744526;0.836501
2.860;-2.707746;0.830530
2.870;-2.671673;0.824665
2.880;-2.635942;0.818751
2.890;-2.600654;0.812659
2.900;-2.566356;0.806448
2.910;-2.533886;0.800406
2.920;-2.504148;0.794908
2.930;-2.477910;0.790144
2.940;-2.455688;0.785913
2.950;-2.437697;0.781640
2.960;-2.423865;0.776666
2.970;-2.413853;0.770656
2.980;-2.407130;0.763868
2.990;-2.403098;0.757096
3.000;-2.401261;0.751293
3.010;-2.401396;0.747126
3.020;-2.403661;0.744741
3.030;-2.408619;0.743868
3.040;-2.417148;0.744144
3.050;-2.430243;0.745399
3.060;-2.448756;0.747692
3.070;-2.473161;0.751132
3.080;-2.503451;0.755622
3.090;-2.539231;0.760724
3.100;-2.579907;0.765752
3.110;-2.624866;0.770062
3.120;-2.673514;0.773380
3.130;-2.725207;0.775977
3.140;-2.779142;0.778561
3.150;-2.834286;0.781931
3.160;-2.889336;0.786538
3.170;-2.942683;0.792218
3.180;-2.992375;0.798211
3.190;-3.036179;0.803466
3.200;-3.071846;0.807041
3.210;-3.097613;0.808404
3.220;-3.112773;0.807523
3.230;-3.118022;0.804730
3.240;-3.115401;0.800459
3.250;-3.107782;0.795001
3.260;-3.098145;0.788386
3.270;-3.088910;0.780441
3.280;-3.081555;0.770960
3.290;-3.076551;0.759904
3.300;-3.073566;0.747508
3.310;-3.071804;0.734247
3.320;-3.070405;0.720721
3.330;-3.068825;0.707519
3.340;-3.067083;0.695155
3.350;-3.065823;0.684046
3.360;-3.066108;0.674511
3.370;-3.069031;0.666743
3.380;-3.075287;0.660780
3.390;-3.084883;0.656482
3.400;-3.097068;0.653539
3.410;-3.110462;0.651495
3.420;-3.123316;0.649803
3.430;-3.133792;0.647897
3.440;-3.140227;0.645301
3.450;-3.141350;0.641761
3.460;-3.136452;0.637343
3.470;-3.125538;0.632410
3.480;-3.109389;0.627488
3.490;-3.089479;0.623050
3.500;-3.067697;0.619353
3.510;-3.045939;0.616388
3.520;-3.025694;0.613983
3.530;-3.007700;0.611985
3.540;-2.991717;0.610408
3.550;-2.976473;0.609449
3.560;-2.959852;0.609365
3.570;-2.939358;0.610270
3.580;-2.912727;0.612014
3.590;-2.878481;0.614221
3.600;-2.836186;0.616471
3.610;-2.786350;0.618497
3.620;-2.730040;0.620277
3.630;-2.668435;0.621988
3.640;-2.602528;0.623896
3.650;-2.533090;0.626265
3.660;-2.460821;0.629310
3.670;-2.386569;0.633181
3.680;-2.311517;0.637962
3.690;-2.237305;0.643690
3.700;-2.166025;0.650400
3.710;-2.100032;0.658157
3.720;-2.041570;0.667071
3.730;-1.992328;0.677264
3.740;-1.953114;0.688815
3.750;-1.923788;0.701671
3.760;-1.903491;0.715561
3.770;-1.891042;0.729963
3.780;-1.885321;0.744178
3.790;-1.885471;0.757490
3.800;-1.890910;0.769349
3.810;-1.901207;0.779527
3.820;-1.915920;0.788198
3.830;-1.934491;0.795899
3.840;-1.956200;0.803332
3.850;-1.980192;0.811061
3.860;-2.005552;0.819272
3.870;-2.031438;0.827719
3.880;-2.057207;0.835895
3.890;-2.082500;0.843310
3.900;-2.107209;0.849727
3.910;-2.131315;0.855250
3.920;-2.154692;0.860240
3.930;-2.176976;0.865101
3.940;-2.197601;0.870043
3.950;-2.215963;0.874923
3.960;-2.231584;0.879233
3.970;-2.244178;0.882268
3.980;-2.253624;0.883421
3.990;-2.259919;0.882498
4.000;-2.263187;0.879875
4.010;-2.263748;0.876377
4.020;-2.262195;0.872957
4.030;-2.259449;0.870353
4.040;-2.256726;0.868897
4.050;-2.255401;0.868521
4.060;-2.256799;0.868873
4.070;-2.261941;0.869458
4.080;-2.271340;0.869757
4.090;-2.284884;0.869318
4.100;-2.301855;0.867840
4.110;-2.321110;0.865209
4.120;-2.341360;0.861490
4.130;-2.361510;0.856854
4.140;-2.380988;0.851477
4.150;-2.399977;0.845479
4.160;-2.419430;0.838944
4.170;-2.440776;0.832000
4.180;-2.465316;0.824890
4.190;-2.493506;0.817952
4.200;-2.524417;0.811504
4.210;-2.555667;0.805707
4.220;-2.583932;0.800469
4.230;-2.605908;0.795462
4.240;-2.619341;0.790197
4.250;-2.623734;0.784128
4.260;-2.620407;0.776756
4.270;-2.611929;0.767758
4.280;-2.601181;0.757116
4.290;-2.590466;0.745190
4.300;-2.580995;0.732668
4.310;-2.572845;0.720400
4.320;-2.565288;0.709140
4.330;-2.557283;0.699291
4.340;-2.547899;0.690723
4.350;-2.536574;0.682775
4.360;-2.523173;0.674476
4.370;-2.507912;0.664951
4.380;-2.491210;0.653828
4.390;-2.473529;0.641447
4.400;-2.455256;0.628784
4.410;-2.436642;0.617141
4.420;-2.417824;0.607735
4.430;-2.398911;0.601350
4.440;-2.380076;0.598141
4.450;-2.361624;0.597669
4.460;-2.343979;0.599162
4.470;-2.327583;0.601868
4.480;-2.312744;0.605303
4.490;-2.299480;0.609297
4.500;-2.287449;0.613866
4.510;-2.276016;0.619039
4.520;-2.264477;0.624772
4.530;-2.252379;0.630976
4.540;-2.239791;0.637613
4.550;-2.227398;0.644726
4.560;-2.216361;0.652354
4.570;-2.208003;0.660401
4.580;-2.203446;0.668553
4.590;-2.203302;0.676323
4.600;-2.207505;0.683182
4.610;-2.215294;0.688720
4.620;-2.225342;0.692753
4.630;-2.236006;0.695359
4.640;-2.245648;0.696818
4.650;-2.252941;0.697504
4.660;-2.257059;0.697766
4.670;-2.257714;0.697845
4.680;-2.255053;0.697859
4.690;-2.249514;0.697817
4.700;-2.241690;0.697670
4.710;-2.232233;0.697362
4.720;-2.221817;0.696906
4.730;-2.211141;0.696479
4.740;-2.200962;0.696500
4.750;-2.192077;0.697610
4.760;-2.185215;0.700527
4.770;-2.180909;0.705815
4.780;-2.179419;0.713653
4.790;-2.180791;0.723764
4.800;-2.184970;0.735512
4.810;-2.191890;0.748121
4.820;-2.201464;0.760901
4.830;-2.213506;0.773400
4.840;-2.227659;0.785484
4.850;-2.243396;0.797315
4.860;-2.260112;0.809268
4.870;-2.277242;0.821787
4.880;-2.294365;0.835226
4.890;-2.311267;0.849729
4.900;-2.327962;0.865193
4.910;-2.344712;0.881315
4.920;-2.362011;0.897682
4.930;-2.380511;0.913864
4.940;-2.400873;0.929496
4.950;-2.423537;0.944376
4.960;-2.448462;0.958582
4.970;-2.474964;0.972537
4.980;-2.501730;0.986934
4.990;-2.527066;1.002552
5.000;-2.549309;1.020012
5.010;-2.567255;1.039606
5.020;-2.580467;1.061236
5.030;-2.589384;1.084472
5.040;-2.595203;1.108679
5.050;-2.599548;1.133136
5.060;-2.604020;1.157153
5.070;-2.609771;1.180151
5.080;-2.617292;1.201688
5.090;-2.626468;1.221412
5.100;-2.636862;1.238971
5.110;-2.648059;1.253975
5.120;-2.659888;1.266071
5.130;-2.672456;1.275140
5.140;-2.686003;1.281499
5.150;-2.700736;1.285949
5.160;-2.716723;1.289599
5.170;-2.733895;1.293517
5.180;-2.752097;1.298395
5.190;-2.771147;1.304391
5.200;-2.790895;1.311218
5.210;-2.811324;1.318400
5.220;-2.832693;1.325555
5.230;-2.855664;1.332587
5.240;-2.881306;1.339731
5.250;-2.910890;1.347448
5.260;-2.945468;1.356213
5.270;-2.985381;1.366266
5.280;-3.029890;1.377403
5.290;-3.077096;1.388865
5.300;-3.124177;1.399417
5.310;-3.167887;1.407627
5.320;-3.205165;1.412270
5.330;-3.233737;1.412698
5.340;-3.252533;1.409046
5.350;-3.261817;1.402155
5.360;-3.262959;1.393283
5.370;-3.257967;1.383718
5.380;-3.248948;1.374468
5.390;-3.237701;1.366121
5.400;-3.225530;1.358829
5.410;-3.213269;1.352391
5.420;-3.201431;1.346395
5.430;-3.190374;1.340391
5.440;-3.180398;1.334032
5.450;-3.171762;1.327144
5.460;-3.164604;1.319709
5.470;-3.158808;1.311800
5.480;-3.153887;1.303519
5.490;-3.148944;1.294954
5.500;-3.142771;1.286141
5.510;-3.134119;1.277034
5.520;-3.122042;1.267495
5.530;-3.106180;1.257338
5.540;-3.086806;1.246398
5.550;-3.064592;1.234555
5.560;-3.040185;1.221691
5.570;-3.013793;1.207644
5.580;-2.984993;1.192217
5.590;-2.952865;1.175270
5.600;-2.916400;1.156818
5.610;-2.874999;1.137039
5.620;-2.828808;1.116176
5.630;-2.778791;1.094406
5.640;-2.726553;1.071766
5.650;-2.674064;1.048218
5.660;-2.623385;1.023815
5.670;-2.576453;0.998913
5.680;-2.534910;0.974298
5.690;-2.500002;0.951146
5.700;-2.472509;0.930767
5.710;-2.452701;0.914203
5.720;-2.440309;0.901879
5.730;-2.434529;0.893480
5.740;-2.434108;0.888152
5.750;-2.437551;0.884908
5.760;-2.443401;0.883075
5.770;-2.450523;0.882552
5.780;-2.458267;0.883770
5.790;-2.466468;0.887364
5.800;-2.475284;0.893710
5.810;-2.484975;0.902554
5.820;-2.495730;0.912938
5.830;-2.507574;0.923502
5.840;-2.520345;0.933032
5.850;-2.533704;0.940989
5.860;-2.547172;0.947735
5.870;-2.560201;0.954359
5.880;-2.572339;0.962215
5.890;-2.583428;0.972386
5.900;-2.593751;0.985304
5.910;-2.603994;1.000660
5.920;-2.614993;1.017583
5.930;-2.627356;1.034991
5.940;-2.641162;1.051941
5.950;-2.655916;1.067845
5.960;-2.670791;1.082498
5.970;-2.685010;1.095965
5.980;-2.698152;1.108426
5.990;-2.710216;1.120068
6.000;-2.721411;1.131046
6.010;-2.731822;1.141455
6.020;-2.741142;1.151259
6.030;-2.748656;1.160193
6.040;-2.753489;1.167735
6.050;-2.754946;1.173208
6.060;-2.752754;1.176016
6.070;-2.747039;1.175884
6.080;-2.738087;1.172961
6.090;-2.726049;1.167720
6.100;-2.710776;1.160698
6.110;-2.691848;1.152230
6.120;-2.668745;1.142326
6.130;-2.641041;1.130705
6.140;-2.608544;1.116987
6.150;-2.571375;1.100931
6.160;-2.530036;1.082636
6.170;-2.485486;1.062636
6.180;-2.439190;1.041823
6.190;-2.393088;1.021257
6.200;-2.349425;1.001932
6.210;-2.310438;0.984594
6.220;-2.277941;0.969676
6.230;-2.252934;0.957348
6.240;-2.235383;0.947640
6.250;-2.224289;0.940566
6.260;-2.218031;0.936198
6.270;-2.214835;0.934678
6.280;-2.213208;0.936160
6.290;-2.212157;0.940703
6.300;-2.211200;0.948191
6.310;-2.210245;0.958299
6.320;-2.209410;0.970524
6.330;-2.208851;0.984227
6.340;-2.208578;0.998670
6.350;-2.208315;1.013089
6.360;-2.207485;1.026814
6.370;-2.205380;1.039432
6.380;-2.201460;1.050907
6.390;-2.195611;1.061563
6.400;-2.188206;1.071915
6.410;-2.179964;1.082407
6.420;-2.171679;1.093192
6.430;-2.163926;1.104044
6.440;-2.156836;1.114390
6.450;-2.150021;1.123452
6.460;-2.142738;1.130425
6.470;-2.134245;1.134660
6.480;-2.124216;1.135784
6.490;-2.112988;1.133743
6.500;-2.101529;1.128775
6.510;-2.091097;1.121388
6.520;-2.082772;1.112326
6.530;-2.077036;1.102498
6.540;-2.073561;1.092830
6.550;-2.071284;1.084045
6.560;-2.068734;1.076459
6.570;-2.064511;1.069893
6.580;-2.057764;1.063729
6.590;-2.048534;1.057120
6.600;-2.037822;1.049264
6.610;-2.027378;1.039671
6.620;-2.019243;1.028340
6.630;-2.015194;1.015781
6.640;-2.016263;1.002857
6.650;-2.022470;0.990532
6.660;-2.032849;0.979606
6.670;-2.045690;0.970559
6.680;-2.058919;0.963524
6.690;-2.070488;0.958382
6.700;-2.078705;0.954910
6.710;-2.082435;0.952914
6.720;-2.081120;0.952267
6.730;-2.074590;0.952876
6.740;-2.062743;0.954604
6.750;-2.045225;0.957228
6.760;-2.021261;0.960441
6.770;-1.989712;0.963924
6.780;-1.949354;0.967446
6.790;-1.899272;0.970982
6.800;-1.839247;0.974806
6.810;-1.770007;0.979505
6.820;-1.693271;0.985872
6.830;-1.611593;0.994653
6.840;-1.528037;1.006225
6.850;-1.445799;1.020328
6.860;-1.367862;1.036017
6.870;-1.296750;1.051903
6.880;-1.234381;1.066603
6.890;-1.182014;1.079206
6.900;-1.140298;1.089560
6.910;-1.109398;1.098264
6.920;-1.089146;1.106346
6.930;-1.079143;1.114776
6.940;-1.078775;1.123992
6.950;-1.087151;1.133712
6.960;-1.103078;1.143121
6.970;-1.125159;1.151340
6.980;-1.152036;1.157922
6.990;-1.182716;1.163084
7.000;-1.216838;1.167589
7.010;-1.254754;1.172356
7.020;-1.297350;1.178028
7.030;-1.345648;1.184681
7.040;-1.400289;1.191786
7.050;-1.461062;1.198408
7.060;-1.526629;1.203508
7.070;-1.594534;1.206213
7.080;-1.661551;1.205985
7.090;-1.724302;1.202728
7.100;-1.779995;1.196836
7.110;-1.826991;1.189140
7.120;-1.865000;1.180704
7.130;-1.894818;1.172560
7.140;-1.917755;1.165485
7.150;-1.934978;1.159906
7.160;-1.947023;1.155891
7.170;-1.953605;1.153166
7.180;-1.953765;1.151142
7.190;-1.946215;1.148991
7.200;-1.929751;1.145847
7.210;-1.903565;1.141104
7.220;-1.867420;1.134719
7.230;-1.821688;1.127308
7.240;-1.767270;1.119917
7.250;-1.705453;1.113562
7.260;-1.637766;1.108788
7.270;-1.565883;1.105469
7.280;-1.491589;1.102918
7.290;-1.416774;1.100213
7.300;-1.343384;1.096556
7.310;-1.273283;1.091532
7.320;-1.208064;1.085200
7.330;-1.148873;1.078040
7.340;-1.096356;1.070810
7.350;-1.050744;1.064344
7.360;-1.012026;1.059343
7.370;-0.980101;1.056215
7.380;-0.954880;1.055035
7.390;-0.936318;1.055601
7.400;-0.924424;1.057538
7.410;-0.919260;1.060367
7.420;-0.920916;1.063570
7.430;-0.929455;1.066674
7.440;-0.944839;1.069375
7.450;-0.966865;1.071660
7.460;-0.995154;1.073825
7.470;-1.029225;1.076372
7.480;-1.068618;1.079793
7.490;-1.113013;1.084366
7.500;-1.162256;1.090045
7.510;-1.216277;1.096457
7.520;-1.274920;1.102943
7.530;-1.337768;1.108632
7.540;-1.404005;1.112571
7.550;-1.472368;1.113939
7.560;-1.541185;1.112276
7.570;-1.608528;1.107615
7.580;-1.672480;1.100485
7.590;-1.731502;1.091791
7.600;-1.784803;1.082613
7.610;-1.832566;1.073975
7.620;-1.875899;1.066635
7.630;-1.916508;1.060952
7.640;-1.956179;1.056867
7.650;-1.996279;1.053975
7.660;-2.037436;1.051690
7.670;-2.079506;1.049439
7.680;-2.121798;1.046831
7.690;-2.163476;1.043741
7.700;-2.203956;1.040290
7.710;-2.243124;1.036749
7.720;-2.281279;1.033420
7.730;-2.318856;1.030536
7.740;-2.356065;1.028195
7.750;-2.392600;1.026331
7.760;-2.427483;1.024732
7.770;-2.459081;1.023107
7.780;-2.485294;1.021192
7.790;-2.503923;1.018825
7.800;-2.513137;1.015981
7.810;-2.511868;1.012785
7.820;-2.499962;1.009536
7.830;-2.478034;1.006715
7.840;-2.447131;1.004913
7.850;-2.408416;1.004677
7.860;-2.363064;1.006334
7.870;-2.312412;1.009880
7.880;-2.258219;1.014985
7.890;-2.202851;1.021110
7.900;-2.149236;1.027707
7.910;-2.100558;1.034417
7.920;-2.059772;1.041179
7.930;-2.029093;1.048167
7.940;-2.009639;1.055565
7.950;-2.001341;1.063322
7.960;-2.003134;1.071009
7.970;-2.013358;1.077889
7.980;-2.030225;1.083150
