Time[s];COPx[cm];COPy[cm]
0.010;-2.198807;-0.915991
0.020;-2.205105;-0.908095
0.030;-2.210638;-0.899677
0.040;-2.214637;-0.890429
0.050;-2.216431;-0.880406
0.060;-2.215576;-0.870057
0.070;-2.212003;-0.860122
0.080;-2.206084;-0.851417
0.090;-2.198613;-0.844597
0.100;-2.190667;-0.839965
0.110;-2.183419;-0.837410
0.120;-2.177915;-0.836468
0.130;-2.174886;-0.836486
0.140;-2.174623;-0.836793
0.150;-2.176978;-0.836848
0.160;-2.181465;-0.836332
0.170;-2.187457;-0.835216
0.180;-2.194380;-0.833785
0.190;-2.201838;-0.832587
0.200;-2.209619;-0.832296
0.210;-2.217631;-0.833508
0.220;-2.225837;-0.836552
0.230;-2.234225;-0.841410
0.240;-2.242795;-0.847773
0.250;-2.251518;-0.855216
0.260;-2.260274;-0.863388
0.270;-2.268809;-0.872146
0.280;-2.276757;-0.881619
0.290;-2.283726;-0.892183
0.300;-2.289433;-0.904399
0.310;-2.293801;-0.918944
0.320;-2.296973;-0.936569
0.330;-2.299235;-0.958058
0.340;-2.300884;-0.984095
0.350;-2.302137;-1.014981
0.360;-2.303122;-1.050246
0.370;-2.303945;-1.088387
0.380;-2.304749;-1.126927
0.390;-2.305746;-1.162894
0.400;-2.307203;-1.193520
0.410;-2.309420;-1.216880
0.420;-2.312747;-1.232203
0.430;-2.317600;-1.239738
0.440;-2.324458;-1.240326
0.450;-2.333770;-1.234909
0.460;-2.345805;-1.224247
0.470;-2.360485;-1.208909
0.480;-2.377309;-1.189490
0.490;-2.395415;-1.166861
0.500;-2.413800;-1.142292
0.510;-2.431591;-1.117361
0.520;-2.448292;-1.093664
0.530;-2.463900;-1.072463
0.540;-2.478878;-1.054414
0.550;-2.493996;-1.039499
0.560;-2.510107;-1.027153
0.570;-2.527928;-1.016509
0.580;-2.547879;-1.006620
0.590;-2.570040;-0.996610
0.600;-2.594218;-0.985760
0.610;-2.620117;-0.973598
0.620;-2.647534;-0.960030
0.630;-2.676459;-0.945475
0.640;-2.707060;-0.930875
0.650;-2.739535;-0.917510
0.660;-2.773916;-0.906630
0.670;-2.809890;-0.899055
0.680;-2.846718;-0.894897
0.690;-2.883276;-0.893536
0.700;-2.918249;-0.893888
0.710;-2.950415;-0.894835
0.720;-2.978923;-0.895642
0.730;-3.003479;-0.896115
0.740;-3.024349;-0.896466
0.750;-3.042199;-0.896971
0.760;-3.057827;-0.897656
0.770;-3.071887;-0.898154
0.780;-3.084718;-0.897785
0.790;-3.096347;-0.895799
0.800;-3.106618;-0.891647
0.810;-3.115353;-0.885172
0.820;-3.122422;-0.876642
0.830;-3.127676;-0.866632
0.840;-3.130805;-0.855820
0.850;-3.131238;-0.844812
0.860;-3.128190;-0.834030
0.870;-3.120895;-0.823690
0.880;-3.108943;-0.813851
0.890;-3.092596;-0.804475
0.900;-3.072893;-0.795495
0.910;-3.051450;-0.786881
0.920;-3.030029;-0.778686
0.930;-3.010064;-0.771070
0.940;-2.992365;-0.764285
0.950;-2.977061;-0.758631
0.960;-2.963778;-0.754407
0.970;-2.951896;-0.751851
0.980;-2.940811;-0.751102
0.990;-2.930113;-0.752170
1.000;-2.919688;-0.754943
1.010;-2.909724;-0.759200
1.020;-2.900651;-0.764615
1.030;-2.892997;-0.770749
1.040;-2.887224;-0.777070
1.050;-2.883598;-0.783018
1.060;-2.882146;-0.788110
1.070;-2.882694;-0.792031
1.080;-2.884908;-0.794656
1.090;-2.888298;-0.796013
1.100;-2.892182;-0.796184
1.110;-2.895693;-0.795208
1.120;-2.897858;-0.793045
1.130;-2.897793;-0.789620
1.140;-2.894940;-0.784908
1.150;-2.889239;-0.779007
1.160;-2.881153;-0.772160
1.170;-2.871514;-0.764749
1.180;-2.861269;-0.757268
1.190;-2.851219;-0.750274
1.200;-2.841851;-0.744292
1.210;-2.833305;-0.739669
1.220;-2.825491;-0.736434
1.230;-2.818266;-0.734275
1.240;-2.811556;-0.732656
1.250;-2.805370;-0.731061
1.260;-2.799703;-0.729238
1.270;-2.794436;-0.727292
1.280;-2.789279;-0.725568
1.290;-2.783813;-0.724367
1.300;-2.777584;-0.723661
1.310;-2.770220;-0.722969
1.320;-2.761495;-0.721493
1.330;-2.751287;-0.718444
1.340;-2.739431;-0.713389
1.350;-2.725538;-0.706453
1.360;-2.708839;-0.698262
1.370;-2.688187;-0.689708
1.380;-2.662277;-0.681637
1.390;-2.630051;-0.674622
1.400;-2.591120;-0.668865
1.410;-2.546007;-0.664243
1.420;-2.496065;-0.660440
1.430;-2.443126;-0.657111
1.440;-2.389021;-0.654019
1.450;-2.335169;-0.651077
1.460;-2.282348;-0.648297
1.470;-2.230684;-0.645690
1.480;-2.179809;-0.643175
1.490;-2.129100;-0.640573
1.500;-2.077934;-0.637680
1.510;-2.025865;-0.634359
1.520;-1.972704;-0.630610
1.530;-1.918528;-0.626556
1.540;-1.863639;-0.622382
1.550;-1.808540;-0.618263
1.560;-1.753919;-0.614301
1.570;-1.700639;-0.610509
1.580;-1.649693;-0.606839
1.590;-1.602123;-0.603228
1.600;-1.558928;-0.599666
1.610;-1.520987;-0.596236
1.620;-1.489041;-0.593146
1.630;-1.463666;-0.590735
1.640;-1.445243;-0.589452
1.650;-1.433870;-0.589762
1.660;-1.429259;-0.591984
1.670;-1.430675;-0.596125
1.680;-1.437002;-0.601817
1.690;-1.446991;-0.608400
1.700;-1.459577;-0.615142
1.710;-1.474161;-0.621486
1.720;-1.490695;-0.627208
1.730;-1.509572;-0.632399
1.740;-1.531362;-0.637302
1.750;-1.556523;-0.642097
1.760;-1.585176;-0.646734
1.770;-1.617002;-0.650861
1.780;-1.651282;-0.653888
1.790;-1.687055;-0.655158
1.800;-1.723370;-0.654193
1.810;-1.759530;-0.650917
1.820;-1.795286;-0.645778
1.830;-1.830871;-0.639679
1.840;-1.866878;-0.633738
1.850;-1.903992;-0.628980
1.860;-1.942676;-0.626087
1.870;-1.982920;-0.625285
1.880;-2.024139;-0.626352
1.890;-2.065262;-0.628686
1.900;-2.104992;-0.631413
1.910;-2.142153;-0.633518
1.920;-2.175975;-0.634011
1.930;-2.206206;-0.632098
1.940;-2.232986;-0.627334
1.950;-2.256541;-0.619703
1.960;-2.276858;-0.609569
1.970;-2.293506;-0.597533
1.980;-2.305732;-0.584241
1.990;-2.312764;-0.570226
2.000;-2.314189;-0.555861
2.010;-2.310202;-0.541377
2.020;-2.301609;-0.526926
2.030;-2.289569;-0.512628
2.040;-2.275176;-0.498581
2.050;-2.259080;-0.484856
2.060;-2.241338;-0.471490
2.070;-2.221543;-0.458480
2.080;-2.199159;-0.445788
2.090;-2.173832;-0.433342
2.100;-2.145521;-0.421025
2.110;-2.114423;-0.408680
2.120;-2.080823;-0.396146
2.130;-2.045012;-0.383325
2.140;-2.007351;-0.370268
2.150;-1.968435;-0.357192
2.160;-1.929228;-0.344416
2.170;-1.891065;-0.332265
2.180;-1.855467;-0.320993
2.190;-1.823820;-0.310776
2.200;-1.797002;-0.301763
2.210;-1.775085;-0.294156
2.220;-1.757236;-0.288233
2.230;-1.741905;-0.284314
2.240;-1.727286;-0.282654
2.250;-1.711910;-0.283349
2.260;-1.695116;-0.286301
2.270;-1.677229;-0.291258
2.280;-1.659387;-0.297923
2.290;-1.643165;-0.306066
2.300;-1.630142;-0.315597
2.310;-1.621563;-0.326531
2.320;-1.618135;-0.338877
2.330;-1.619952;-0.352508
2.340;-1.626539;-0.367067
2.350;-1.637001;-0.381973
2.360;-1.650229;-0.396537
2.370;-1.665123;-0.410153
2.380;-1.680770;-0.422454
2.390;-1.696551;-0.433358
2.400;-1.712192;-0.442980
2.410;-1.727755;-0.451478
2.420;-1.743567;-0.458949
2.430;-1.760063;-0.465423
2.440;-1.777578;-0.470919
2.450;-1.796126;-0.475501
2.460;-1.815287;-0.479297
2.470;-1.834252;-0.482463
2.480;-1.852023;-0.485142
2.490;-1.867683;-0.487433
2.500;-1.880639;-0.489420
2.510;-1.890748;-0.491219
2.520;-1.898343;-0.493008
2.530;-1.904133;-0.494979
2.540;-1.909023;-0.497249
2.550;-1.913860;-0.499788
2.560;-1.919191;-0.502413
2.570;-1.925115;-0.504885
2.580;-1.931295;-0.507022
2.590;-1.937120;-0.508781
2.600;-1.941950;-0.510235
2.610;-1.945336;-0.511505
2.620;-1.947149;-0.512692
2.630;-1.947568;-0.513859
2.640;-1.946991;-0.515038
2.650;-1.945890;-0.516207
2.660;-1.944727;-0.517271
2.670;-1.943910;-0.518039
2.680;-1.943800;-0.518268
2.690;-1.944713;-0.517734
2.700;-1.946890;-0.516297
2.710;-1.950442;-0.513917
2.720;-1.955295;-0.510624
2.730;-1.961167;-0.506489
2.740;-1.967590;-0.501609
2.750;-1.974008;-0.496113
2.760;-1.979931;-0.490132
2.770;-1.985085;-0.483745
2.780;-1.989522;-0.476933
2.790;-1.993606;-0.469593
2.800;-1.997889;-0.461620
2.810;-2.002905;-0.453003
2.820;-2.008964;-0.443856
2.830;-2.016020;-0.434344
2.840;-2.023645;-0.424529
2.850;-2.031115;-0.414247
2.860;-2.037547;-0.403122
2.870;-2.042056;-0.390754
2.880;-2.043902;-0.376996
2.890;-2.042597;-0.362170
2.900;-2.037975;-0.347091
2.910;-2.030209;-0.332899
2.920;-2.019755;-0.320741
2.930;-2.007238;-0.311427
2.940;-1.993317;-0.305164
2.950;-1.978578;-0.301465
2.960;-1.963481;-0.299281
2.970;-1.948378;-0.297311
2.980;-1.933572;-0.294387
2.990;-1.919367;-0.289757
3.000;-1.906060;-0.283191
3.010;-1.893884;-0.274895
3.020;-1.882949;-0.265312
3.030;-1.873226;-0.254926
3.040;-1.864616;-0.244176
3.050;-1.857080;-0.233480
3.060;-1.850773;-0.223319
3.070;-1.846120;-0.214285
3.080;-1.843775;-0.207048
3.090;-1.844474;-0.202236
3.100;-1.848798;-0.200293
3.110;-1.856913;-0.201338
3.120;-1.868408;-0.205075
3.130;-1.882301;-0.210783
3.140;-1.897243;-0.217429
3.150;-1.911866;-0.223893
3.160;-1.925123;-0.229253
3.170;-1.936499;-0.233052
3.180;-1.946060;-0.235432
3.190;-1.954348;-0.237094
3.200;-1.962233;-0.239069
3.210;-1.970770;-0.242413
3.220;-1.981114;-0.247950
3.230;-1.994476;-0.256148
3.240;-2.012086;-0.267138
3.250;-2.035126;-0.280826
3.260;-2.064599;-0.296970
3.270;-2.101141;-0.315211
3.280;-2.144797;-0.335087
3.290;-2.194835;-0.356104
3.300;-2.249679;-0.377870
3.310;-2.307053;-0.400210
3.320;-2.364342;-0.423150
3.330;-2.419080;-0.446769
3.340;-2.469393;-0.471010
3.350;-2.514256;-0.495569
3.360;-2.553484;-0.519949
3.370;-2.587535;-0.543606
3.380;-2.617231;-0.566115
3.390;-2.643504;-0.587250
3.400;-2.667201;-0.606999
3.410;-2.688928;-0.625515
3.420;-2.708943;-0.643060
3.430;-2.727134;-0.659939
3.440;-2.743088;-0.676451
3.450;-2.756231;-0.692848
3.460;-2.765965;-0.709271
3.470;-2.771764;-0.725673
3.480;-2.773219;-0.741741
3.490;-2.770069;-0.756880
3.500;-2.762246;-0.770327
3.510;-2.749920;-0.781381
3.520;-2.733537;-0.789661
3.530;-2.713810;-0.795243
3.540;-2.691646;-0.798569
3.550;-2.668015;-0.800185
3.560;-2.643803;-0.800490
3.570;-2.619705;-0.799656
3.580;-2.596183;-0.797763
3.590;-2.573488;-0.795016
3.600;-2.551695;-0.791871
3.610;-2.530740;-0.789020
3.620;-2.510474;-0.787223
3.630;-2.490735;-0.787117
3.640;-2.471440;-0.789047
3.650;-2.452641;-0.792994
3.660;-2.434505;-0.798558
3.670;-2.417221;-0.805022
3.680;-2.400856;-0.811450
3.690;-2.385223;-0.816833
3.700;-2.369830;-0.820258
3.710;-2.353953;-0.821106
3.720;-2.336848;-0.819201
3.730;-2.318044;-0.814869
3.740;-2.297608;-0.808862
3.750;-2.276244;-0.802163
3.760;-2.255146;-0.795737
3.770;-2.235632;-0.790308
3.780;-2.218717;-0.786202
3.790;-2.204821;-0.783304
3.800;-2.193717;-0.781105
3.810;-2.184736;-0.778836
3.820;-2.177073;-0.775685
3.830;-2.170060;-0.771026
3.840;-2.163288;-0.764607
3.850;-2.156546;-0.756643
3.860;-2.149692;-0.747780
3.870;-2.142554;-0.738961
3.880;-2.134972;-0.731211
3.890;-2.126920;-0.725400
3.900;-2.118628;-0.722019
3.910;-2.110571;-0.721065
3.920;-2.103352;-0.722049
3.930;-2.097499;-0.724152
3.940;-2.093287;-0.726441
3.950;-2.090673;-0.728113
3.960;-2.089364;-0.728684
3.970;-2.088985;-0.728090
3.980;-2.089238;-0.726669
3.990;-2.090000;-0.725025
4.000;-2.091318;-0.723839
4.010;-2.093356;-0.723709
4.020;-2.096333;-0.725115
4.030;-2.100495;-0.728467
4.040;-2.106097;-0.734171
4.050;-2.113382;-0.742614
4.060;-2.122517;-0.754058
4.070;-2.133485;-0.768498
4.080;-2.145980;-0.785598
4.090;-2.159334;-0.804789
4.100;-2.172526;-0.825530
4.110;-2.184300;-0.847597
4.120;-2.193376;-0.871225
4.130;-2.198699;-0.896965
4.140;-2.199655;-0.925295
4.150;-2.196141;-0.956142
4.160;-2.188500;-0.988571
4.170;-2.177342;-1.020800
4.180;-2.163357;-1.050597
4.190;-2.147214;-1.075894
4.200;-2.129569;-1.095382
4.210;-2.111154;-1.108856
4.220;-2.092863;-1.117221
4.230;-2.075741;-1.122177
4.240;-2.060855;-1.125728
4.250;-2.049083;-1.129670
4.260;-2.040886;-1.135189
4.270;-2.036163;-1.142675
4.280;-2.034260;-1.151772
4.290;-2.034188;-1.161621
4.300;-2.034973;-1.171209
4.310;-2.036007;-1.179711
4.320;-2.037209;-1.186716
4.330;-2.038968;-1.192254
4.340;-2.041885;-1.196620
4.350;-2.046451;-1.200097
4.360;-2.052787;-1.202726
4.370;-2.060535;-1.204289
4.380;-2.068924;-1.204479
4.390;-2.076963;-1.203183
4.400;-2.083681;-1.200674
4.410;-2.088349;-1.197615
4.420;-2.090614;-1.194819
4.430;-2.090513;-1.192924
4.440;-2.088377;-1.192153
4.450;-2.084690;-1.192288
4.460;-2.079974;-1.192841
4.470;-2.074759;-1.193304
4.480;-2.069629;-1.193353
4.490;-2.065290;-1.192951
4.500;-2.062567;-1.192343
4.510;-2.062258;-1.191949
4.520;-2.064874;-1.192231
4.530;-2.070338;-1.193543
4.540;-2.077807;-1.196007
4.550;-2.085769;-1.199416
4.560;-2.092421;-1.203208
4.570;-2.096197;-1.206571
4.580;-2.096244;-1.208692
4.590;-2.092675;-1.209100
4.600;-2.086513;-1.207947
4.610;-2.079391;-1.206029
4.620;-2.073105;-1.204482
4.630;-2.069160;-1.204241
4.640;-2.068425;-1.205496
4.650;-2.070970;-1.207437
4.660;-2.076108;-1.208433
4.670;-2.082602;-1.206575
4.680;-2.088981;-1.200311
4.690;-2.093870;-1.188869
4.700;-2.096278;-1.172341
4.710;-2.095798;-1.151438
4.720;-2.092699;-1.127093
4.730;-2.087902;-1.100101
4.740;-2.082831;-1.070912
4.750;-2.079128;-1.039640
4.760;-2.078299;-1.006225
4.770;-2.081383;-0.970658
4.780;-2.088781;-0.933186
4.790;-2.100276;-0.894439
4.800;-2.115215;-0.855447
4.810;-2.132746;-0.817531
4.820;-2.152031;-0.782076
4.830;-2.172402;-0.750274
4.840;-2.193454;-0.722948
4.850;-2.215072;-0.700502
4.860;-2.237377;-0.682980
4.870;-2.260573;-0.670157
4.880;-2.284727;-0.661615
4.890;-2.309580;-0.656766
4.900;-2.334494;-0.654859
4.910;-2.358581;-0.654985
4.920;-2.380957;-0.656161
4.930;-2.401014;-0.657486
4.940;-2.418590;-0.658347
4.950;-2.434001;-0.658550
4.960;-2.447948;-0.658318
4.970;-2.461348;-0.658143
4.980;-2.475131;-0.658561
4.990;-2.490070;-0.659930
5.000;-2.506681;-0.662294
5.010;-2.525206;-0.665370
5.020;-2.545684;-0.668644
5.030;-2.568046;-0.671542
5.040;-2.592233;-0.673601
5.050;-2.618260;-0.674601
5.060;-2.646251;-0.674585
5.070;-2.676438;-0.673766
5.080;-2.709146;-0.672364
5.090;-2.744750;-0.670480
5.100;-2.783577;-0.668065
5.110;-2.825732;-0.664979
5.120;-2.870928;-0.661035
5.130;-2.918355;-0.655987
5.140;-2.966679;-0.649473
5.150;-3.014171;-0.641037
5.160;-3.058920;-0.630250
5.170;-3.099066;-0.616904
5.180;-3.132978;-0.601150
5.190;-3.159381;-0.583500
5.200;-3.177456;-0.564707
5.210;-3.186960;-0.545607
5.220;-3.188336;-0.526976
5.230;-3.182754;-0.509442
5.240;-3.172021;-0.493436
5.250;-3.158325;-0.479172
5.260;-3.143858;-0.466660
5.270;-3.130384;-0.455766
5.280;-3.118891;-0.446278
5.290;-3.109421;-0.437962
5.300;-3.101174;-0.430601
5.310;-3.092840;-0.424043
5.320;-3.083053;-0.418258
5.330;-3.070813;-0.413418
5.340;-3.055743;-0.409953
5.350;-3.038135;-0.408542
5.360;-3.018817;-0.409967
5.370;-2.998896;-0.414852
5.380;-2.979457;-0.423352
5.390;-2.961312;-0.434945
5.400;-2.944874;-0.448419
5.410;-2.930168;-0.462074
5.420;-2.916972;-0.474052
5.430;-2.905015;-0.482716
5.440;-2.894111;-0.486964
5.450;-2.884200;-0.486428
5.460;-2.875281;-0.481501
5.470;-2.867316;-0.473183
5.480;-2.860191;-0.462804
5.490;-2.853743;-0.451666
5.500;-2.847830;-0.440715
5.510;-2.842405;-0.430363
5.520;-2.837538;-0.420533
5.530;-2.833378;-0.410918
5.540;-2.830063;-0.401308
5.550;-2.827611;-0.391839
5.560;-2.825833;-0.383018
5.570;-2.824339;-0.375518
5.580;-2.822660;-0.369829
5.590;-2.820470;-0.365936
5.600;-2.817775;-0.363185
5.610;-2.814944;-0.360427
5.620;-2.812538;-0.356399
5.630;-2.811030;-0.350188
5.640;-2.810578;-0.341582
5.650;-2.810979;-0.331159
5.660;-2.811763;-0.320089
5.670;-2.812381;-0.309711
5.680;-2.812348;-0.301068
5.690;-2.811325;-0.294578
5.700;-2.809109;-0.290023
5.710;-2.805579;-0.286802
5.720;-2.800676;-0.284305
5.730;-2.794425;-0.282186
5.740;-2.787024;-0.280418
5.750;-2.778932;-0.279196
5.760;-2.770874;-0.278791
5.770;-2.763728;-0.279452
5.780;-2.758292;-0.281365
5.790;-2.755019;-0.284652
5.800;-2.753817;-0.289374
5.810;-2.753984;-0.295535
5.820;-2.754313;-0.303064
5.830;-2.753331;-0.311817
5.840;-2.749619;-0.321567
5.850;-2.742156;-0.332011
5.860;-2.730597;-0.342797
5.870;-2.715424;-0.353569
5.880;-2.697893;-0.364038
5.890;-2.679768;-0.374049
5.900;-2.662887;-0.383606
5.910;-2.648709;-0.392828
5.920;-2.638000;-0.401876
5.930;-2.630772;-0.410866
5.940;-2.626470;-0.419834
5.950;-2.624299;-0.428771
5.960;-2.623546;-0.437723
5.970;-2.623781;-0.446910
5.980;-2.624893;-0.456766
5.990;-2.627007;-0.467874
6.000;-2.630332;-0.480774
6.010;-2.635010;-0.495738
6.020;-2.641018;-0.512586
6.030;-2.648119;-0.530647
6.040;-2.655839;-0.548902
6.050;-2.663470;-0.566248
6.060;-2.670114;-0.581764
6.070;-2.674823;-0.594868
6.080;-2.676822;-0.605306
6.090;-2.675725;-0.613026
6.100;-2.671631;-0.618029
6.110;-2.665049;-0.620295
6.120;-2.656711;-0.619823
6.130;-2.647364;-0.616750
6.140;-2.637631;-0.611472
6.150;-2.627951;-0.604666
6.160;-2.618572;-0.597158
6.170;-2.609546;-0.589689
6.180;-2.600703;-0.582698
6.190;-2.591639;-0.576244
6.200;-2.581770;-0.570086
6.210;-2.570499;-0.563901
6.220;-2.557429;-0.557509
6.230;-2.542511;-0.551031
6.240;-2.526019;-0.544908
6.250;-2.508369;-0.539829
6.260;-2.489872;-0.536601
6.270;-2.470566;-0.535989
6.280;-2.450185;-0.538541
6.290;-2.428265;-0.544432
6.300;-2.404312;-0.553356
6.310;-2.377981;-0.564546
6.320;-2.349197;-0.576911
6.330;-2.318214;-0.589302
6.340;-2.285628;-0.600826
6.350;-2.252369;-0.611138
6.360;-2.219651;-0.620592
6.370;-2.188878;-0.630160
6.380;-2.161455;-0.641069
6.390;-2.138522;-0.654253
6.400;-2.120701;-0.669810
6.410;-2.107966;-0.686708
6.420;-2.099704;-0.702918
6.430;-2.094955;-0.715972
6.440;-2.092701;-0.723765
6.450;-2.092092;-0.725293
6.460;-2.092526;-0.721044
6.470;-2.093588;-0.712895
6.480;-2.094914;-0.703557
6.490;-2.096082;-0.695804
6.500;-2.096580;-0.691764
6.510;-2.095884;-0.692502
6.520;-2.093574;-0.697973
6.530;-2.089465;-0.707280
6.540;-2.083634;-0.719088
6.550;-2.076337;-0.732047
6.560;-2.067834;-0.745086
6.570;-2.058250;-0.757500
6.580;-2.047571;-0.768849
6.590;-2.035789;-0.778764
6.600;-2.023109;-0.786840
6.610;-2.010072;-0.792700
6.620;-1.997545;-0.796219
6.630;-1.986565;-0.797767
6.640;-1.978093;-0.798316
6.650;-1.972767;-0.799306
6.660;-1.970728;-0.802306
6.670;-1.971559;-0.808596
6.680;-1.974389;-0.818839
6.690;-1.978126;-0.832952
6.700;-1.981781;-0.850172
6.710;-1.984770;-0.869267
6.720;-1.987120;-0.888803
6.730;-1.989478;-0.907427
6.740;-1.992910;-0.924081
6.750;-1.998545;-0.938113
6.760;-2.007215;-0.949259
6.770;-2.019224;-0.957514
6.780;-2.034325;-0.962996
6.790;-2.051881;-0.965896
6.800;-2.071107;-0.966551
6.810;-2.091262;-0.965604
6.820;-2.111712;-0.964089
6.830;-2.131855;-0.963356
6.840;-2.151027;-0.964791
6.850;-2.168476;-0.969449
6.860;-2.183450;-0.977748
6.870;-2.195371;-0.989374
6.880;-2.204004;-1.003430
6.890;-2.209539;-1.018775
6.900;-2.212559;-1.034394
6.910;-2.213927;-1.049652
6.920;-2.214633;-1.064330
6.930;-2.215659;-1.078485
6.940;-2.217858;-1.092255
6.950;-2.221854;-1.105667
6.960;-2.227953;-1.118526
6.970;-2.236066;-1.130352
6.980;-2.245682;-1.140402
6.990;-2.255985;-1.147772
7.000;-2.266091;-1.151572
7.010;-2.275362;-1.151132
7.020;-2.283622;-1.146144
7.030;-2.291174;-1.136706
7.040;-2.298609;-1.123258
7.050;-2.306506;-1.106469
7.060;-2.315181;-1.087093
7.070;-2.324592;-1.065849
7.080;-2.334442;-1.043323
7.090;-2.344416;-1.019920
7.100;-2.354386;-0.995882
7.110;-2.364498;-0.971359
7.120;-2.375094;-0.946501
7.130;-2.386557;-0.921509
7.140;-2.399159;-0.896600
7.150;-2.413034;-0.871936
7.160;-2.428250;-0.847559
7.170;-2.444919;-0.823421
7.180;-2.463252;-0.799483
7.190;-2.483496;-0.775847
7.200;-2.505788;-0.752824
7.210;-2.530002;-0.730889
7.220;-2.555648;-0.710524
7.230;-2.581889;-0.692042
7.240;-2.607640;-0.675500
7.250;-2.631715;-0.660725
7.260;-2.652976;-0.647436
7.270;-2.670464;-0.635392
7.280;-2.683549;-0.624494
7.290;-2.692069;-0.614811
7.300;-2.696430;-0.606511
7.310;-2.697572;-0.599737
7.320;-2.696814;-0.594468
7.330;-2.695592;-0.590451
7.340;-2.695181;-0.587236
7.350;-2.696479;-0.584295
7.360;-2.699866;-0.581182
7.370;-2.705184;-0.577679
7.380;-2.711825;-0.573884
7.390;-2.718915;-0.570214
7.400;-2.725560;-0.567300
7.410;-2.731071;-0.565794
7.420;-2.735132;-0.566117
7.430;-2.737822;-0.568245
7.440;-2.739490;-0.571623
7.450;-2.740503;-0.575270
7.460;-2.741006;-0.578035
7.470;-2.740812;-0.578906
7.480;-2.739495;-0.577278
7.490;-2.736643;-0.573096
7.500;-2.732118;-0.566833
7.510;-2.726185;-0.559328
7.520;-2.719460;-0.551512
7.530;-2.712736;-0.544142
7.540;-2.706746;-0.537605
7.550;-2.701968;-0.531882
7.560;-2.698506;-0.526651
7.570;-2.696107;-0.521497
7.580;-2.694313;-0.516132
7.590;-2.692683;-0.510531
7.600;-2.690972;-0.504948
7.610;-2.689177;-0.499805
7.620;-2.687448;-0.495510
7.630;-2.685916;-0.492287
7.640;-2.684506;-0.490083
7.650;-2.682818;-0.488610
7.660;-2.680112;-0.487473
7.670;-2.675401;-0.486319
7.680;-2.667619;-0.484932
