Time[s];COPx[cm];COPy[cm]
0.010;5.655335;-0.471432
0.020;5.648008;-0.505847
0.030;5.635321;-0.538389
0.040;5.613065;-0.567688
0.050;5.578856;-0.592838
0.060;5.532295;-0.613534
0.070;5.474721;-0.630093
0.080;5.408767;-0.643336
0.090;5.337915;-0.654335
0.100;5.266084;-0.664142
0.110;5.197216;-0.673565
0.120;5.134813;-0.683082
0.130;5.081467;-0.692856
0.140;5.038530;-0.702851
0.150;5.006078;-0.712980
0.160;4.983231;-0.723274
0.170;4.968754;-0.734022
0.180;4.961733;-0.745835
0.190;4.962074;-0.759585
0.200;4.970645;-0.776193
0.210;4.988976;-0.796297
0.220;5.018615;-0.819922
0.230;5.060363;-0.846260
0.240;5.113681;-0.873660
0.250;5.176539;-0.899877
0.260;5.245766;-0.922497
0.270;5.317774;-0.939454
0.280;5.389358;-0.949471
0.290;5.458266;-0.952283
0.300;5.523389;-0.948590
0.310;5.584540;-0.939742
0.320;5.641941;-0.927268
0.330;5.695594;-0.912407
0.340;5.744786;-0.895787
0.350;5.787883;-0.877347
0.360;5.822488;-0.856436
0.370;5.845895;-0.831999
0.380;5.855688;-0.802723
0.390;5.850275;-0.767113
0.400;5.829188;-0.723543
0.410;5.793076;-0.670362
0.420;5.743413;-0.606077
0.430;5.682059;-0.529633
0.440;5.610808;-0.440675
0.450;5.531082;-0.339759
0.460;5.443863;-0.228440
0.470;5.349905;-0.109288
0.480;5.250122;0.014159
0.490;5.145997;0.137528
0.500;5.039843;0.255906
0.510;4.934761;0.364373
0.520;4.834241;0.458710
0.530;4.741447;0.536091
0.540;4.658455;0.595501
0.550;4.585771;0.637683
0.560;4.522387;0.664676
0.570;4.466349;0.679132
0.580;4.415571;0.683711
0.590;4.368528;0.680718
0.600;4.324547;0.672024
0.610;4.283661;0.659159
0.620;4.246145;0.643437
0.630;4.212002;0.626030
0.640;4.180650;0.607968
0.650;4.150986;0.590112
0.660;4.121816;0.573139
0.670;4.092477;0.557562
0.680;4.063333;0.543773
0.690;4.035862;0.532056
0.700;4.012187;0.522536
0.710;3.994216;0.515082
0.720;3.982770;0.509278
0.730;3.977141;0.504521
0.740;3.975290;0.500216
0.750;3.974586;0.495992
0.760;3.972726;0.491848
0.770;3.968501;0.488210
0.780;3.962121;0.485878
0.790;3.955082;0.485892
0.800;3.949651;0.489345
0.810;3.948146;0.497186
0.820;3.952239;0.510084
0.830;3.962438;0.528366
0.840;3.977868;0.552027
0.850;3.996345;0.580803
0.860;4.014713;0.614262
0.870;4.029318;0.651913
0.880;4.036510;0.693295
0.890;4.033076;0.738054
0.900;4.016555;0.786017
0.910;3.985410;0.837260
0.920;3.939066;0.892106
0.930;3.877809;0.950990
0.940;3.802576;1.014198
0.950;3.714693;1.081574
0.960;3.615671;1.152309
0.970;3.507092;1.224937
0.980;3.390590;1.297525
0.990;3.267917;1.368038
1.000;3.141042;1.434749
1.010;3.012218;1.496578
1.020;2.883948;1.553233
1.030;2.758807;1.605093
1.040;2.639177;1.652857
1.050;2.526962;1.697094
1.060;2.423403;1.737923
1.070;2.329012;1.774974
1.080;2.243668;1.807667
1.090;2.166815;1.835615
1.100;2.097732;1.858937
1.110;2.035777;1.878321
1.120;1.980559;1.894832
1.130;1.931983;1.909577
1.140;1.890171;1.923383
1.150;1.855307;1.936602
1.160;1.827494;1.949098
1.170;1.806685;1.960385
1.180;1.792673;1.969854
1.190;1.785100;1.977018
1.200;1.783433;1.981676
1.210;1.786934;1.983899
1.220;1.794663;1.983860
1.230;1.805613;1.981570
1.240;1.818982;1.976690
1.250;1.834533;1.968525
1.260;1.852921;1.956233
1.270;1.875816;1.939152
1.280;1.905689;1.917112
1.290;1.945246;1.890624
1.300;1.996663;1.860892
1.310;2.060906;1.829662
1.320;2.137380;1.798954
1.330;2.224021;1.770715
1.340;2.317706;1.746496
1.350;2.414828;1.727224
1.360;2.511856;1.713180
1.370;2.605778;1.704151
1.380;2.694395;1.699698
1.390;2.776454;1.699415
1.400;2.851629;1.703088
1.410;2.920403;1.710694
1.420;2.983857;1.722269
1.430;3.043402;1.737710
1.440;3.100445;1.756634
1.450;3.156014;1.778330
1.460;3.210415;1.801838
1.470;3.263058;1.826132
1.480;3.312533;1.850392
1.490;3.356935;1.874278
1.500;3.394344;1.898093
1.510;3.423326;1.922744
1.520;3.443343;1.949487
1.530;3.454985;1.979558
1.540;3.459967;2.013798
1.550;3.460899;2.052361
1.560;3.460865;2.094554
1.570;3.462919;2.138855
1.580;3.469580;2.183104
1.590;3.482473;2.224855
1.600;3.502216;2.261768
1.610;3.528631;2.291944
1.620;3.561209;2.314104
1.630;3.599636;2.327599
1.640;3.644132;2.332291
1.650;3.695451;2.328382
1.660;3.754531;2.316251
1.670;3.821970;2.296364
1.680;3.897599;2.269261
1.690;3.980371;2.235595
1.700;4.068577;2.196172
1.710;4.160264;2.151957
1.720;4.253607;2.104037
1.730;4.347112;2.053520
1.740;4.439587;2.001406
1.750;4.530004;1.948454
1.760;4.617356;1.895106
1.770;4.700621;1.841479
1.780;4.778852;1.787454
1.790;4.851358;1.732863
1.800;4.917874;1.677703
1.810;4.978623;1.622330
1.820;5.034229;1.567554
1.830;5.085544;1.514578
1.840;5.133481;1.464803
1.850;5.178903;1.419577
1.860;5.222554;1.379967
1.870;5.264996;1.346631
1.880;5.306526;1.319804
1.890;5.347107;1.299355
1.900;5.386356;1.284894
1.910;5.423599;1.275881
1.920;5.457989;1.271678
1.930;5.488633;1.271517
1.940;5.514710;1.274380
1.950;5.535544;1.278876
1.960;5.550629;1.283209
1.970;5.559568;1.285323
1.980;5.561927;1.283213
1.990;5.557063;1.275321
2.000;5.544018;1.260874
2.010;5.521581;1.240030
2.020;5.488525;1.213706
2.030;5.443944;1.183141
2.040;5.387556;1.149322
2.050;5.319879;1.112469
2.060;5.242241;1.071773
2.070;5.156619;1.025480
2.080;5.065362;0.971343
2.090;4.970838;0.907314
2.100;4.875074;0.832243
2.110;4.779505;0.746294
2.120;4.684903;0.650904
2.130;4.591512;0.548306
2.140;4.499347;0.440823
2.150;4.408535;0.330257
2.160;4.319611;0.217613
2.170;4.233673;0.103280
2.180;4.152394;-0.012479
2.190;4.077861;-0.128961
2.200;4.012281;-0.244688
2.210;3.957546;-0.357432
2.220;3.914755;-0.464593
2.230;3.883838;-0.563740
2.240;3.863430;-0.653069
2.250;3.851049;-0.731579
2.260;3.843529;-0.798924
2.270;3.837542;-0.855107
2.280;3.830054;-0.900198
2.290;3.818603;-0.934237
2.300;3.801400;-0.957332
2.310;3.777340;-0.969866
2.320;3.746033;-0.972677
2.330;3.707914;-0.967047
2.340;3.664410;-0.954454
2.350;3.618034;-0.936174
2.360;3.572294;-0.912978
2.370;3.531296;-0.885063
2.380;3.499055;-0.852295
2.390;3.478726;-0.814621
2.400;3.472023;-0.772505
2.410;3.479111;-0.727206
2.420;3.499004;-0.680842
2.430;3.530277;-0.636183
2.440;3.571768;-0.596217
2.450;3.623007;-0.563594
2.460;3.684230;-0.540118
2.470;3.756078;-0.526494
2.480;3.839162;-0.522403
2.490;3.933702;-0.526829
2.500;4.039370;-0.538472
2.510;4.155316;-0.556082
2.520;4.280300;-0.578632
2.530;4.412818;-0.605375
2.540;4.551162;-0.635828
2.550;4.693398;-0.669709
2.560;4.837347;-0.706834
2.570;4.980596;-0.746995
2.580;5.120609;-0.789867
2.590;5.254876;-0.834996
2.600;5.381082;-0.881864
2.610;5.497235;-0.930012
2.620;5.601720;-0.979165
2.630;5.693250;-1.029317
2.640;5.770736;-1.080702
2.650;5.833152;-1.133653
2.660;5.879477;-1.188374
2.670;5.908729;-1.244731
2.680;5.920067;-1.302151
2.690;5.912908;-1.359678
2.700;5.887022;-1.416164
2.710;5.842569;-1.470542
2.720;5.780108;-1.522028
2.730;5.700612;-1.570180
2.740;5.605471;-1.614725
2.750;5.496442;-1.655247
2.760;5.375468;-1.690878
2.770;5.244387;-1.720195
2.780;5.104679;-1.741423
2.790;4.957403;-1.752909
2.800;4.803439;-1.753711
2.810;4.643970;-1.744051
2.820;4.481039;-1.725466
2.830;4.317873;-1.700579
2.840;4.158760;-1.672568
2.850;4.008378;-1.644524
2.860;3.870760;-1.618893
2.870;3.748256;-1.597172
2.880;3.640918;-1.579885
2.890;3.546552;-1.566809
2.900;3.461357;-1.557303
2.910;3.380896;-1.550643
2.920;3.301007;-1.546257
2.930;3.218397;-1.543839
2.940;3.130813;-1.543332
2.950;3.036875;-1.544800
2.960;2.935781;-1.548222
2.970;2.827101;-1.553301
2.980;2.710734;-1.559347
2.990;2.587006;-1.565300
3.000;2.456826;-1.569893
3.010;2.321775;-1.571955
3.020;2.184065;-1.570781
3.030;2.046333;-1.566453
3.040;1.911355;-1.559982
3.050;1.781813;-1.553164
3.060;1.660257;-1.548221
3.070;1.549248;-1.547356
3.080;1.451516;-1.552375
3.090;1.369885;-1.564449
3.100;1.306839;-1.584014
3.110;1.263837;-1.610774
3.120;1.240686;-1.643793
3.130;1.235326;-1.681670
3.140;1.244173;-1.722745
3.150;1.262904;-1.765264
3.160;1.287372;-1.807459
3.170;1.314304;-1.847537
3.180;1.341535;-1.883633
3.190;1.367739;-1.913770
3.200;1.391834;-1.935861
3.210;1.412380;-1.947793
3.220;1.427316;-1.947595
3.230;1.434178;-1.933711
3.240;1.430753;-1.905313
3.250;1.415885;-1.862519
3.260;1.390138;-1.806411
3.270;1.356046;-1.738792
3.280;1.317862;-1.661805
3.290;1.280845;-1.577606
3.300;1.250266;-1.488266
3.310;1.230347;-1.395896
3.320;1.223378;-1.302844
3.330;1.229203;-1.211732
3.340;1.245270;-1.125255
3.350;1.267282;-1.045766
3.360;1.290332;-0.974845
3.370;1.310239;-0.913011
3.380;1.324715;-0.859684
3.390;1.334087;-0.813421
3.400;1.341377;-0.772367
3.410;1.351707;-0.734773
3.420;1.371141;-0.699409
3.430;1.405196;-0.665733
3.440;1.457438;-0.633751
3.450;1.528561;-0.603656
3.460;1.616291;-0.575430
3.470;1.716089;-0.548619
3.480;1.822361;-0.522361
3.490;1.929692;-0.495637
3.500;2.033683;-0.467566
3.510;2.131275;-0.437642
3.520;2.220617;-0.405835
3.530;2.300698;-0.372565
3.540;2.370911;-0.338590
3.550;2.430694;-0.304819
3.560;2.479297;-0.272126
3.570;2.515721;-0.241170
3.580;2.538848;-0.212250
3.590;2.547718;-0.185185
3.600;2.541863;-0.159258
3.610;2.521560;-0.133259
3.620;2.487900;-0.105713
3.630;2.442684;-0.075242
3.640;2.388192;-0.040963
3.650;2.326921;-0.002722
3.660;2.261369;0.038952
3.670;2.193898;0.083201
3.680;2.126713;0.129317
3.690;2.061960;0.177107
3.700;2.001919;0.226943
3.710;1.949176;0.279493
3.720;1.906639;0.335268
3.730;1.877271;0.394234
3.740;1.863572;0.455698
3.750;1.867008;0.518526
3.760;1.887629;0.581570
3.770;1.924054;0.644077
3.780;1.973810;0.705845
3.790;2.033872;0.767064
3.800;2.101228;0.827960
3.810;2.173292;0.888457
3.820;2.248153;0.948034
3.830;2.324628;1.005817
3.840;2.402197;1.060823
3.850;2.480882;1.112227
3.860;2.561102;1.159531
3.870;2.643503;1.202587
3.880;2.728723;1.241507
3.890;2.817074;1.276546
3.900;2.908211;1.308036
3.910;3.000928;1.336406
3.920;3.093231;1.362228
3.930;3.182704;1.386261
3.940;3.267056;1.409434
3.950;3.344621;1.432768
3.960;3.414643;1.457243
3.970;3.477261;1.483666
3.980;3.533270;1.512592
3.990;3.583769;1.544350
4.000;3.629809;1.579197
4.010;3.672123;1.617485
4.020;3.711002;1.659701
4.030;3.746321;1.706326
4.040;3.777677;1.757559
4.050;3.804531;1.813058
4.060;3.826304;1.871835
4.070;3.842413;1.932327
4.080;3.852304;1.992599
4.090;3.855549;2.050597
4.100;3.852006;2.104395
4.110;3.841978;2.152408
4.120;3.826277;2.193573
4.130;3.806152;2.227500
4.140;3.783071;2.254548
4.150;3.758468;2.275799
4.160;3.733533;2.292849
4.170;3.709134;2.307459
4.180;3.685899;2.321113
4.190;3.664415;2.334663
4.200;3.645448;2.348179
4.210;3.630077;2.361118
4.220;3.619658;2.372752
4.230;3.615655;2.382703
4.240;3.619387;2.391363
4.250;3.631792;2.399993
4.260;3.653297;2.410417
4.270;3.683826;2.424448
4.280;3.722901;2.443315
4.290;3.769780;2.467339
4.300;3.823529;2.496013
4.310;3.883053;2.528356
4.320;3.947098;2.563359
4.330;4.014282;2.600257
4.340;4.083182;2.638537
4.350;4.152445;2.677709
4.360;4.220912;2.717021
4.370;4.287692;2.755287
4.380;4.352141;2.790960
4.390;4.413756;2.822395
4.400;4.472049;2.848213
4.410;4.526467;2.867597
4.420;4.576418;2.880421
4.430;4.621362;2.887177
4.440;4.660920;2.888760
4.450;4.694895;2.886204
4.460;4.723195;2.880485
4.470;4.745666;2.872407
4.480;4.761936;2.862573
4.490;4.771340;2.851425
4.500;4.772979;2.839343
4.510;4.765893;2.826736
4.520;4.749274;2.814057
4.530;4.722629;2.801694
4.540;4.685841;2.789737
4.550;4.639115;2.777779
4.560;4.582900;2.764839
4.570;4.517838;2.749491
4.580;4.444795;2.730138
4.590;4.364924;2.705369
4.600;4.279699;2.674260
4.610;4.190829;2.636560
4.620;4.100023;2.592677
4.630;4.008650;2.543460
4.640;3.917439;2.489823
4.650;3.826383;2.432363
4.660;3.734911;2.371114
4.670;3.642326;2.305548
4.680;3.548372;2.234803
4.690;3.453744;2.158055
4.700;3.360391;2.074898
4.710;3.271472;1.985626
4.720;3.190921;1.891358
4.730;3.122683;1.793988
4.740;3.069806;1.695992
4.750;3.033674;1.600103
4.760;3.013679;1.508939
4.770;3.007488;1.424678
4.780;3.011823;1.348847
4.790;3.023452;1.282245
4.800;3.039991;1.224996
4.810;3.060288;1.176695
4.820;3.084325;1.136615
4.830;3.112762;1.103920
4.840;3.146340;1.077868
4.850;3.185365;1.057952
4.860;3.229439;1.043971
4.870;3.277486;1.036006
4.880;3.327993;1.034287
4.890;3.379333;1.038973
4.900;3.430035;1.049894
4.910;3.478960;1.066358
4.920;3.525332;1.087121
4.930;3.568640;1.110575
4.940;3.608469;1.135104
4.950;3.644312;1.159463
4.960;3.675464;1.183013
4.970;3.701041;1.205682
4.980;3.720135;1.227655
4.990;3.732060;1.248943
5.000;3.736632;1.269031
5.010;3.734404;1.286777
5.020;3.726800;1.300609
5.030;3.716106;1.308968
5.040;3.705238;1.310827
5.050;3.697278;1.306094
5.060;3.694867;1.295739
5.070;3.699640;1.281588
5.080;3.711932;1.265854
5.090;3.730876;1.250580
5.100;3.754844;1.237184
5.110;3.782057;1.226219
5.120;3.811154;1.217402
5.130;3.841589;1.209835
5.140;3.873752;1.202348
5.150;3.908811;1.193868
5.160;3.948310;1.183740
5.170;3.993610;1.171915
5.180;4.045310;1.158924
5.190;4.102790;1.145619
5.200;4.164015;1.132760
5.210;4.225664;1.120630
5.220;4.283526;1.108862
5.230;4.333065;1.096586
5.240;4.370008;1.082840
5.250;4.390902;1.067078
5.260;4.393595;1.049529
5.270;4.377584;1.031249
5.280;4.344144;1.013819
5.290;4.296104;0.998796
5.300;4.237211;0.987140
5.310;4.171193;0.978865
5.320;4.100834;0.973065
5.330;4.027373;0.968271
5.340;3.950456;0.962934
5.350;3.868618;0.955831
5.360;3.780108;0.946237
5.370;3.683773;0.933891
5.380;3.579780;0.918830
5.390;3.470038;0.901176
5.400;3.358253;0.880936
5.410;3.249598;0.857864
5.420;3.149999;0.831424
5.430;3.065103;0.800897
5.440;2.999137;0.765628
5.450;2.953979;0.725312
5.460;2.928813;0.680211
5.470;2.920486;0.631188
5.480;2.924414;0.579542
5.490;2.935675;0.526729
5.500;2.949923;0.474088
5.510;2.963892;0.422654
5.520;2.975495;0.373098
5.530;2.983610;0.325763
5.540;2.987725;0.280773
5.550;2.987603;0.238156
5.560;2.983072;0.197970
5.570;2.973997;0.160390
5.580;2.960406;0.125743
5.590;2.942688;0.094466
5.600;2.921755;0.067017
5.610;2.899026;0.043742
5.620;2.876180;0.024774
5.630;2.854711;0.009994
5.640;2.835495;-0.000912
5.650;2.818602;-0.008325
5.660;2.803486;-0.012541
5.670;2.789542;-0.013675
5.680;2.776835;-0.011618
5.690;2.766729;-0.006104
5.700;2.762158;0.003180
5.710;2.767378;0.016433
5.720;2.787184;0.033596
5.730;2.825774;0.054228
5.740;2.885607;0.077424
5.750;2.966656;0.101804
5.760;3.066302;0.125594
5.770;3.179901;0.146845
5.780;3.301777;0.163762
5.790;3.426287;0.175064
5.800;3.548660;0.180238
5.810;3.665380;0.179590
5.820;3.774146;0.174058
5.830;3.873490;0.164842
5.840;3.962281;0.152978
5.850;4.039303;0.139005
5.860;4.103039;0.122820
5.870;4.151695;0.103796
5.880;4.183454;0.081094
5.890;4.196827;0.054044
5.900;4.190993;0.022439
5.910;4.165971;-0.013363
5.920;4.122596;-0.052537
5.930;4.062343;-0.094025
5.940;3.987081;-0.136825
5.950;3.898872;-0.180211
5.960;3.799827;-0.223818
5.970;3.692043;-0.267538
5.980;3.577615;-0.311280
5.990;3.458745;-0.354708
6.000;3.337942;-0.397093
6.010;3.218265;-0.437405
6.020;3.103432;-0.474595
6.030;2.997626;-0.507935
6.040;2.904900;-0.537237
6.050;2.828291;-0.562872
6.060;2.768985;-0.585595
6.070;2.725925;-0.606301
6.080;2.696070;-0.625788
6.090;2.675251;-0.644605
6.100;2.659226;-0.662988
6.110;2.644562;-0.680847
6.120;2.629045;-0.697760
6.130;2.611614;-0.713009
6.140;2.591960;-0.725704
6.150;2.570041;-0.734974
6.160;2.545721;-0.740206
6.170;2.518616;-0.741200
6.180;2.488132;-0.738216
6.190;2.453623;-0.731875
6.200;2.414583;-0.722979
6.210;2.370815;-0.712292
6.220;2.322503;-0.700374
6.230;2.270164;-0.687494
6.240;2.214511;-0.673650
6.250;2.156277;-0.658680
6.260;2.096093;-0.642455
6.270;2.034484;-0.625098
6.280;1.972051;-0.607204
6.290;1.909836;-0.589948
6.300;1.849760;-0.575049
6.310;1.794942;-0.564525
6.320;1.749677;-0.560284
6.330;1.718935;-0.563613
6.340;1.707416;-0.574733
6.350;1.718430;-0.592598
6.360;1.753025;-0.615106
6.370;1.809707;-0.639680
6.380;1.884835;-0.663983
6.390;1.973495;-0.686512
6.400;2.070495;-0.706840
6.410;2.171170;-0.725472
6.420;2.271845;-0.743398
6.430;2.369936;-0.761530
6.440;2.463785;-0.780246
6.450;2.552343;-0.799221
6.460;2.634838;-0.817600
6.470;2.710509;-0.834395
6.480;2.778487;-0.848899
6.490;2.837816;-0.860896
6.500;2.887625;-0.870623
6.510;2.927345;-0.878540
6.520;2.956906;-0.885052
6.530;2.976790;-0.890323
6.540;2.987942;-0.894224
6.550;2.991546;-0.896441
6.560;2.988794;-0.896692
6.570;2.980727;-0.894967
6.580;2.968187;-0.891662
6.590;2.951893;-0.887563
6.600;2.932598;-0.883665
6.610;2.911302;-0.880916
6.620;2.889454;-0.879976
6.630;2.869074;-0.881076
6.640;2.852717;-0.884051
6.650;2.843214;-0.888478
6.660;2.843225;-0.893848
6.670;2.854717;-0.899678
6.680;2.878523;-0.905536
6.690;2.914155;-0.911007
6.700;2.959909;-0.915638
6.710;3.013216;-0.918928
6.720;3.071124;-0.920361
6.730;3.130790;-0.919512
6.740;3.189877;-0.916152
6.750;3.246778;-0.910324
6.760;3.300629;-0.902351
6.770;3.351115;-0.892795
6.780;3.398122;-0.882392
6.790;3.441364;-0.871962
6.800;3.480105;-0.862280
6.810;3.513067;-0.853924
6.820;3.538540;-0.847134
6.830;3.554679;-0.841717
6.840;3.559956;-0.837008
6.850;3.553659;-0.831888
6.860;3.536292;-0.824855
6.870;3.509734;-0.814167
6.880;3.477073;-0.798062
6.890;3.442176;-0.775073
6.900;3.409080;-0.744388
6.910;3.381370;-0.706160
6.920;3.361641;-0.661614
6.930;3.351185;-0.612852
6.940;3.349946;-0.562400
6.950;3.356733;-0.512662
6.960;3.369612;-0.465477
6.970;3.386343;-0.421917
6.980;3.404813;-0.382331
6.990;3.423375;-0.346558
7.000;3.441117;-0.314223
7.010;3.458002;-0.285015
7.020;3.474849;-0.258885
7.030;3.493116;-0.236097
7.040;3.514487;-0.217136
7.050;3.540353;-0.202468
7.060;3.571299;-0.192279
7.070;3.606783;-0.186271
7.080;3.645144;-0.183629
7.090;3.683960;-0.183191
7.100;3.720681;-0.183755
7.110;3.753278;-0.184421
7.120;3.780723;-0.184828
7.130;3.803136;-0.185229
7.140;3.821622;-0.186376
7.150;3.837891;-0.189297
7.160;3.853835;-0.195020
7.170;3.871166;-0.204341
7.180;3.891206;-0.217695
7.190;3.914862;-0.235146
7.200;3.942715;-0.256482
7.210;3.975176;-0.281335
7.220;4.012610;-0.309284
7.230;4.055350;-0.339891
7.240;4.103596;-0.372666
7.250;4.157257;-0.406997
7.260;4.215852;-0.442088
7.270;4.278503;-0.476921
7.280;4.344011;-0.510288
7.290;4.410931;-0.540912
7.300;4.477595;-0.567672
7.310;4.542105;-0.589855
7.320;4.602323;-0.607326
7.330;4.655927;-0.620504
7.340;4.700551;-0.630118
7.350;4.734034;-0.636841
7.360;4.754733;-0.640947
7.370;4.761839;-0.642132
7.380;4.755546;-0.639549
7.390;4.736985;-0.632029
7.400;4.707908;-0.618408
7.410;4.670251;-0.597844
7.420;4.625751;-0.570022
7.430;4.575737;-0.535206
7.440;4.521142;-0.494134
7.450;4.462716;-0.447814
7.460;4.401349;-0.397308
7.470;4.338392;-0.343597
7.480;4.275835;-0.287572
7.490;4.216244;-0.230121
7.500;4.162414;-0.172253
7.510;4.116869;-0.115167
7.520;4.081344;-0.060203
7.530;4.056439;-0.008636
7.540;4.041526;0.038615
7.550;4.034924;0.081249
7.560;4.034304;0.119688
7.570;4.037177;0.154950
7.580;4.041356;0.188336
7.590;4.045263;0.221070
7.600;4.048036;0.254042
7.610;4.049449;0.287729
7.620;4.049702;0.322286
7.630;4.049203;0.357695
7.640;4.048379;0.393899
7.650;4.047528;0.430869
7.660;4.046682;0.468608
7.670;4.045497;0.507089
7.680;4.043208;0.546163
7.690;4.038708;0.585512
7.700;4.030748;0.624661
7.710;4.018211;0.663078
7.720;4.000397;0.700301
7.730;3.977235;0.736041
7.740;3.949387;0.770187
7.750;3.918228;0.802730
7.760;3.885717;0.833649
7.770;3.854151;0.862862
7.780;3.825864;0.890270
7.790;3.802925;0.915879
7.800;3.786946;0.939936
7.810;3.779041;0.962990
7.820;3.779913;0.985865
7.830;3.789981;1.009516
7.840;3.809422;1.034865
7.850;3.838116;1.062656
7.860;3.875582;1.093422
7.870;3.921003;1.127542
7.880;3.973428;1.165318
7.890;4.032064;1.206976
7.900;4.096499;1.252560
7.910;4.166719;1.301774
7.920;4.242856;1.353869
7.930;4.324779;1.407675
7.940;4.411724;1.461796
7.950;4.502161;1.514890
7.960;4.593989;1.565923
7.970;4.684992;1.614280
7.980;4.773347;1.659699
7.990;4.857960;1.702086
8.000;4.938476;1.741313
8.010;5.014988;1.777110
8.020;5.087585;1.809131
8.030;5.155983;1.837138
8.040;5.219421;1.861218
8.050;5.276854;1.881891
8.060;5.327295;1.900025
8.070;5.370120;1.916594
8.080;5.405187;1.932382
8.090;5.432780;1.947777
8.100;5.453469;1.962735
8.110;5.467985;1.976902
8.120;5.477132;1.989812
8.130;5.481719;2.001049
8.140;5.482457;2.010337
8.150;5.479827;2.017569
8.160;5.473910;2.022815
8.170;5.464241;2.026309
