Time[s];COPx[cm];COPy[cm]
0.010;-0.437536;0.003147
0.020;-0.424330;0.004579
0.030;-0.411337;0.005382
0.040;-0.398787;0.005129
0.050;-0.386922;0.003739
0.060;-0.375995;0.001525
0.070;-0.366266;-0.000869
0.080;-0.357966;-0.002655
0.090;-0.351223;-0.003133
0.100;-0.345990;-0.001892
0.110;-0.342022;0.001081
0.120;-0.338944;0.005442
0.130;-0.336405;0.010647
0.140;-0.334221;0.016156
0.150;-0.332436;0.021585
0.160;-0.331255;0.026765
0.170;-0.330915;0.031707
0.180;-0.331556;0.036528
0.190;-0.333167;0.041380
0.200;-0.335603;0.046432
0.210;-0.338646;0.051865
0.220;-0.342051;0.057863
0.230;-0.345577;0.064550
0.240;-0.348999;0.071890
0.250;-0.352141;0.079607
0.260;-0.354914;0.087169
0.270;-0.357345;0.093871
0.280;-0.359561;0.099007
0.290;-0.361748;0.102087
0.300;-0.364094;0.103020
0.310;-0.366764;0.102167
0.320;-0.369866;0.100256
0.330;-0.373421;0.098157
0.340;-0.377319;0.096645
0.350;-0.381295;0.096226
0.360;-0.384948;0.097067
0.370;-0.387837;0.098993
0.380;-0.389603;0.101544
0.390;-0.390082;0.104068
0.400;-0.389340;0.105876
0.410;-0.387643;0.106415
0.420;-0.385397;0.105421
0.430;-0.383079;0.102987
0.440;-0.381165;0.099526
0.450;-0.380052;0.095638
0.460;-0.379980;0.091933
0.470;-0.381031;0.088855
0.480;-0.383205;0.086552
0.490;-0.386575;0.084842
0.500;-0.391378;0.083287
0.510;-0.397986;0.081402
0.520;-0.406749;0.078894
0.530;-0.417799;0.075832
0.540;-0.430955;0.072641
0.550;-0.445749;0.069903
0.560;-0.461589;0.068102
0.570;-0.477955;0.067444
0.580;-0.494550;0.067878
0.590;-0.511352;0.069250
0.600;-0.528520;0.071474
0.610;-0.546240;0.074613
0.620;-0.564566;0.078828
0.630;-0.583355;0.084262
0.640;-0.602292;0.090928
0.650;-0.620988;0.098662
0.660;-0.639078;0.107178
0.670;-0.656284;0.116175
0.680;-0.672434;0.125446
0.690;-0.687462;0.134982
0.700;-0.701383;0.145031
0.710;-0.714267;0.156096
0.720;-0.726207;0.168825
0.730;-0.737278;0.183833
0.740;-0.747505;0.201515
0.750;-0.756848;0.221925
0.760;-0.765216;0.244721
0.770;-0.772486;0.269201
0.780;-0.778533;0.294423
0.790;-0.783251;0.319418
0.800;-0.786597;0.343436
0.810;-0.788617;0.366106
0.820;-0.789446;0.387451
0.830;-0.789261;0.407753
0.840;-0.788198;0.427361
0.850;-0.786288;0.446532
0.860;-0.783463;0.465348
0.870;-0.779627;0.483719
0.880;-0.774741;0.501442
0.890;-0.768888;0.518259
0.900;-0.762270;0.533862
0.910;-0.755153;0.547867
0.920;-0.747770;0.559795
0.930;-0.740216;0.569147
0.940;-0.732374;0.575581
0.950;-0.723924;0.579099
0.960;-0.714462;0.580137
0.970;-0.703694;0.579488
0.980;-0.691636;0.578079
0.990;-0.678700;0.576696
1.000;-0.665612;0.575782
1.010;-0.653194;0.575355
1.020;-0.642097;0.575098
1.030;-0.632606;0.574534
1.040;-0.624576;0.573209
1.050;-0.617532;0.570813
1.060;-0.610877;0.567223
1.070;-0.604126;0.562491
1.080;-0.597065;0.556808
1.090;-0.589790;0.550425
1.100;-0.582632;0.543560
1.110;-0.576030;0.536305
1.120;-0.570409;0.528609
1.130;-0.566070;0.520321
1.140;-0.563110;0.511297
1.150;-0.561379;0.501493
1.160;-0.560481;0.491006
1.170;-0.559836;0.480034
1.180;-0.558778;0.468775
1.190;-0.556676;0.457340
1.200;-0.553029;0.445714
1.210;-0.547528;0.433798
1.220;-0.540069;0.421533
1.230;-0.530724;0.409013
1.240;-0.519714;0.396543
1.250;-0.507361;0.384573
1.260;-0.494030;0.373551
1.270;-0.480058;0.363755
1.280;-0.465683;0.355220
1.290;-0.451015;0.347795
1.300;-0.436049;0.341297
1.310;-0.420732;0.335669
1.320;-0.405047;0.331020
1.330;-0.389075;0.327525
1.340;-0.373021;0.325250
1.350;-0.357205;0.324022
1.360;-0.342041;0.323426
1.370;-0.328020;0.322925
1.380;-0.315645;0.322024
1.390;-0.305299;0.320398
1.400;-0.297106;0.317953
1.410;-0.290841;0.314834
1.420;-0.285968;0.311401
1.430;-0.281814;0.308176
1.440;-0.277787;0.305748
1.450;-0.273561;0.304632
1.460;-0.269117;0.305135
1.470;-0.264647;0.307266
1.480;-0.260388;0.310752
1.490;-0.256498;0.315142
1.500;-0.253030;0.319957
1.510;-0.249995;0.324788
1.520;-0.247462;0.329313
1.530;-0.245624;0.333253
1.540;-0.244793;0.336337
1.550;-0.245300;0.338310
1.560;-0.247342;0.338958
1.570;-0.250856;0.338155
1.580;-0.255517;0.335924
1.590;-0.260874;0.332483
1.600;-0.266541;0.328250
1.610;-0.272341;0.323737
1.620;-0.278294;0.319329
1.630;-0.284518;0.315010
1.640;-0.291099;0.310173
1.650;-0.298047;0.303621
1.660;-0.305328;0.293839
1.670;-0.312964;0.279460
1.680;-0.321129;0.259750
1.690;-0.330193;0.234914
1.700;-0.340650;0.206122
1.710;-0.352950;0.175273
1.720;-0.367274;0.144624
1.730;-0.383382;0.116363
1.740;-0.400601;0.092239
1.750;-0.417992;0.073287
1.760;-0.434611;0.059736
1.770;-0.449752;0.051114
1.780;-0.463056;0.046519
1.790;-0.474453;0.044930
1.800;-0.483992;0.045460
1.810;-0.491678;0.047485
1.820;-0.497404;0.050661
1.830;-0.501005;0.054867
1.840;-0.502343;0.060155
1.850;-0.501366;0.066694
1.860;-0.498120;0.074722
1.870;-0.492751;0.084474
1.880;-0.485530;0.096100
1.890;-0.476869;0.109629
1.900;-0.467284;0.124986
1.910;-0.457302;0.142040
1.920;-0.447355;0.160637
1.930;-0.437724;0.180576
1.940;-0.428573;0.201562
1.950;-0.420028;0.223134
1.960;-0.412235;0.244619
1.970;-0.405341;0.265149
1.980;-0.399409;0.283769
1.990;-0.394293;0.299630
2.000;-0.389603;0.312206
2.010;-0.384785;0.321427
2.020;-0.379311;0.327701
2.030;-0.372874;0.331790
2.040;-0.365455;0.334609
2.050;-0.357243;0.336998
2.060;-0.348435;0.339548
2.070;-0.339050;0.342522
2.080;-0.328854;0.345906
2.090;-0.317436;0.349552
2.100;-0.304421;0.353340
2.110;-0.289710;0.357269
2.120;-0.273645;0.361427
2.130;-0.256968;0.365884
2.140;-0.240599;0.370575
2.150;-0.225327;0.375274
2.160;-0.211574;0.379672
2.170;-0.199352;0.383511
2.180;-0.188381;0.386731
2.190;-0.178312;0.389537
2.200;-0.168930;0.392368
2.210;-0.160295;0.395758
2.220;-0.152754;0.400118
2.230;-0.146845;0.405549
2.240;-0.143127;0.411774
2.250;-0.142004;0.418237
2.260;-0.143609;0.424330
2.270;-0.147762;0.429628
2.280;-0.154016;0.434042
2.290;-0.161754;0.437813
2.300;-0.170337;0.441384
2.310;-0.179234;0.445190
2.320;-0.188147;0.449451
2.330;-0.197068;0.454052
2.340;-0.206288;0.458556
2.350;-0.216330;0.462339
2.360;-0.227837;0.464811
2.370;-0.241440;0.465620
2.380;-0.257627;0.464786
2.390;-0.276658;0.462696
2.400;-0.298527;0.459975
2.410;-0.322978;0.457263
2.420;-0.349551;0.454982
2.430;-0.377645;0.453168
2.440;-0.406586;0.451454
2.450;-0.435736;0.449198
2.460;-0.464600;0.445685
2.470;-0.492926;0.440331
2.480;-0.520759;0.432849
2.490;-0.548413;0.423358
2.500;-0.576338;0.412403
2.510;-0.604923;0.400863
2.520;-0.634287;0.389739
2.530;-0.664148;0.379912
2.540;-0.693847;0.371939
2.550;-0.722507;0.365984
2.560;-0.749285;0.361882
2.570;-0.773610;0.359301
2.580;-0.795318;0.357936
2.590;-0.814646;0.357657
2.600;-0.832109;0.358564
2.610;-0.848329;0.360933
2.620;-0.863872;0.365090
2.630;-0.879151;0.371291
2.640;-0.894425;0.379666
2.650;-0.909871;0.390245
2.660;-0.925699;0.403016
2.670;-0.942193;0.417964
2.680;-0.959669;0.435026
2.690;-0.978375;0.453992
2.700;-0.998434;0.474382
2.710;-1.019870;0.495411
2.720;-1.042711;0.516078
2.730;-1.067094;0.535383
2.740;-1.093307;0.552577
2.750;-1.121717;0.567342
2.760;-1.152616;0.579850
2.770;-1.186078;0.590714
2.780;-1.221882;0.600871
2.790;-1.259515;0.611405
2.800;-1.298212;0.623329
2.810;-1.337030;0.637331
2.820;-1.374950;0.653549
2.830;-1.411010;0.671466
2.840;-1.444408;0.690014
2.850;-1.474564;0.707885
2.860;-1.501102;0.723920
2.870;-1.523827;0.737441
2.880;-1.542729;0.748382
2.890;-1.558040;0.757215
2.900;-1.570258;0.764699
2.910;-1.580075;0.771576
2.920;-1.588206;0.778357
2.930;-1.595212;0.785259
2.940;-1.601387;0.792274
2.950;-1.606748;0.799269
2.960;-1.611082;0.806030
2.970;-1.614026;0.812279
2.980;-1.615145;0.817718
2.990;-1.614019;0.822144
3.000;-1.610321;0.825593
3.010;-1.603896;0.828390
3.020;-1.594797;0.831048
3.030;-1.583277;0.834025
3.040;-1.569730;0.837458
3.050;-1.554601;0.841056
3.060;-1.538309;0.844223
3.070;-1.521226;0.846332
3.080;-1.503688;0.846963
3.090;-1.486019;0.845960
3.100;-1.468535;0.843288
3.110;-1.451499;0.838848
3.120;-1.435041;0.832395
3.130;-1.419084;0.823627
3.140;-1.403315;0.812384
3.150;-1.387234;0.798833
3.160;-1.370242;0.783524
3.170;-1.351751;0.767287
3.180;-1.331286;0.751017
3.190;-1.308590;0.735461
3.200;-1.283737;0.721067
3.210;-1.257208;0.707902
3.220;-1.229869;0.695609
3.230;-1.202833;0.683412
3.240;-1.177210;0.670197
3.250;-1.153852;0.654700
3.260;-1.133167;0.635769
3.270;-1.115076;0.612653
3.280;-1.099105;0.585241
3.290;-1.084548;0.554193
3.300;-1.070642;0.520921
3.310;-1.056705;0.487419
3.320;-1.042198;0.455944
3.330;-1.026751;0.428617
3.340;-1.010149;0.407002
3.350;-0.992324;0.391799
3.360;-0.973356;0.382743
3.370;-0.953505;0.378799
3.380;-0.933209;0.378589
3.390;-0.913022;0.380897
3.400;-0.893486;0.385052
3.410;-0.874977;0.391029
3.420;-0.857600;0.399251
3.430;-0.841163;0.410219
3.440;-0.825229;0.424159
3.450;-0.809236;0.440842
3.460;-0.792632;0.459610
3.470;-0.775045;0.479553
3.480;-0.756432;0.499760
3.490;-0.737165;0.519541
3.500;-0.717996;0.538559
3.510;-0.699896;0.556819
3.520;-0.683795;0.574520
3.530;-0.670314;0.591882
3.540;-0.659579;0.609021
3.550;-0.651182;0.625954
3.560;-0.644295;0.642685
3.570;-0.637910;0.659292
3.580;-0.631125;0.675945
3.590;-0.623388;0.692868
3.600;-0.614631;0.710286
3.610;-0.605247;0.728404
3.620;-0.595939;0.747404
3.630;-0.587487;0.767403
3.640;-0.580516;0.788357
3.650;-0.575352;0.809942
3.660;-0.571987;0.831493
3.670;-0.570173;0.852056
3.680;-0.569582;0.870579
3.690;-0.569965;0.886171
3.700;-0.571254;0.898346
3.710;-0.573564;0.907139
3.720;-0.577122;0.913066
3.730;-0.582160;0.916962
3.740;-0.588865;0.919774
3.750;-0.597371;0.922396
3.760;-0.607755;0.925550
3.770;-0.619976;0.929720
3.780;-0.633752;0.935116
3.790;-0.648466;0.941676
3.800;-0.663187;0.949116
3.810;-0.676858;0.957013
3.820;-0.688578;0.964907
3.830;-0.697877;0.972410
3.840;-0.704847;0.979287
3.850;-0.710099;0.985492
3.860;-0.714537;0.991121
3.870;-0.719067;0.996309
3.880;-0.724366;1.001122
3.890;-0.730766;1.005518
3.900;-0.738255;1.009387
3.910;-0.746546;1.012636
3.920;-0.755164;1.015254
3.930;-0.763554;1.017323
3.940;-0.771207;1.018990
3.950;-0.777778;1.020419
3.960;-0.783155;1.021742
3.970;-0.787422;1.023028
3.980;-0.790749;1.024275
3.990;-0.793274;1.025446
4.000;-0.795058;1.026501
4.010;-0.796157;1.027414
4.020;-0.796747;1.028168
4.030;-0.797211;1.028739
4.040;-0.798088;1.029081
4.050;-0.799904;1.029131
4.060;-0.802960;1.028847
4.070;-0.807204;1.028247
4.080;-0.812244;1.027444
4.090;-0.817471;1.026643
4.100;-0.822237;1.026105
4.110;-0.826009;1.026094
4.120;-0.828460;1.026824
4.130;-0.829497;1.028425
4.140;-0.829219;1.030925
4.150;-0.827861;1.034299
4.160;-0.825724;1.038538
4.170;-0.823144;1.043707
4.180;-0.820452;1.049901
4.190;-0.817945;1.057139
4.200;-0.815815;1.065252
4.210;-0.814101;1.073859
4.220;-0.812671;1.082463
4.230;-0.811290;1.090619
4.240;-0.809729;1.098080
4.250;-0.807848;1.104847
4.260;-0.805620;1.111121
4.270;-0.803099;1.117191
4.280;-0.800383;1.123325
4.290;-0.797617;1.129688
4.300;-0.795012;1.136296
4.310;-0.792850;1.143023
4.320;-0.791442;1.149628
4.330;-0.791060;1.155823
4.340;-0.791883;1.161338
4.350;-0.793987;1.166009
4.360;-0.797368;1.169812
4.370;-0.801932;1.172858
4.380;-0.807460;1.175364
4.390;-0.813552;1.177615
4.400;-0.819631;1.179922
4.410;-0.825038;1.182540
4.420;-0.829210;1.185555
4.430;-0.831857;1.188815
4.440;-0.833074;1.191974
4.450;-0.833301;1.194664
4.460;-0.833125;1.196702
4.470;-0.833028;1.198220
4.480;-0.833178;1.199635
4.490;-0.833401;1.201451
4.500;-0.833317;1.203989
4.510;-0.832562;1.207207
4.520;-0.830952;1.210685
4.530;-0.828505;1.213781
4.540;-0.825327;1.215851
4.550;-0.821464;1.216435
4.560;-0.816825;1.215359
4.570;-0.811242;1.212727
4.580;-0.804632;1.208855
4.590;-0.797158;1.204135
4.600;-0.789282;1.198885
4.610;-0.781634;1.193229
4.620;-0.774764;1.187078
4.630;-0.768905;1.180207
4.640;-0.763888;1.172380
4.650;-0.759239;1.163446
4.660;-0.754396;1.153376
4.670;-0.748935;1.142277
4.680;-0.742686;1.130406
4.690;-0.735707;1.118182
4.700;-0.728162;1.106136
4.710;-0.720178;1.094777
4.720;-0.711767;1.084427
4.730;-0.702829;1.075120
4.740;-0.693228;1.066613
4.750;-0.682901;1.058496
4.760;-0.671937;1.050333
4.770;-0.660582;1.041772
4.780;-0.649170;1.032602
4.790;-0.638002;1.022767
4.800;-0.627229;1.012345
4.810;-0.616783;1.001516
4.820;-0.606381;0.990496
4.830;-0.595615;0.979423
4.840;-0.584092;0.968244
4.850;-0.571579;0.956669
4.860;-0.558113;0.944257
4.870;-0.544020;0.930592
4.880;-0.529839;0.915479
4.890;-0.516186;0.899070
4.900;-0.503588;0.881888
4.910;-0.492345;0.864727
4.920;-0.482431;0.848475
4.930;-0.473481;0.833891
4.940;-0.464876;0.821420
4.950;-0.455931;0.811108
4.960;-0.446109;0.802655
4.970;-0.435192;0.795558
4.980;-0.423320;0.789293
4.990;-0.410894;0.783464
5.000;-0.398403;0.777895
5.010;-0.386274;0.772630
5.020;-0.374789;0.767856
5.030;-0.364078;0.763768
5.040;-0.354152;0.760445
5.050;-0.344964;0.757776
5.060;-0.336471;0.755493
5.070;-0.328693;0.753291
5.080;-0.321704;0.751018
5.090;-0.315587;0.748832
5.100;-0.310348;0.747257
5.110;-0.305898;0.747090
5.120;-0.302093;0.749173
5.130;-0.298844;0.754128
5.140;-0.296217;0.762127
5.150;-0.294461;0.772800
5.160;-0.293940;0.785295
5.170;-0.294993;0.798502
5.180;-0.297802;0.811354
5.190;-0.302309;0.823117
5.200;-0.308232;0.833571
5.210;-0.315160;0.842979
5.220;-0.322677;0.851874
5.230;-0.330473;0.860759
5.240;-0.338369;0.869876
5.250;-0.346272;0.879121
5.260;-0.354105;0.888116
5.270;-0.361776;0.896349
5.280;-0.369213;0.903316
5.290;-0.376445;0.908605
5.300;-0.383657;0.911939
5.310;-0.391168;0.913201
5.320;-0.399334;0.912435
5.330;-0.408394;0.909832
5.340;-0.418362;0.905685
5.350;-0.429021;0.900320
5.360;-0.440013;0.894040
5.370;-0.450973;0.887097
5.380;-0.461632;0.879667
5.390;-0.471846;0.871824
5.400;-0.481576;0.863519
5.410;-0.490852;0.854595
5.420;-0.499744;0.844861
5.430;-0.508341;0.834193
5.440;-0.516743;0.822613
5.450;-0.525037;0.810309
5.460;-0.533283;0.797597
5.470;-0.541515;0.784854
5.480;-0.549752;0.772462
5.490;-0.558017;0.760747
5.500;-0.566363;0.749913
5.510;-0.574888;0.739978
5.520;-0.583752;0.730734
5.530;-0.593193;0.721771
5.540;-0.603551;0.712531
5.550;-0.615290;0.702390
5.560;-0.628999;0.690733
5.570;-0.645316;0.677002
5.580;-0.664743;0.660707
5.590;-0.687391;0.641423
5.600;-0.712776;0.618862
5.610;-0.739768;0.593021
5.620;-0.766785;0.564377
5.630;-0.792163;0.533993
5.640;-0.814586;0.503456
5.650;-0.833396;0.474558
5.660;-0.848682;0.448829
5.670;-0.861136;0.427060
5.680;-0.871769;0.409065
5.690;-0.881614;0.393801
5.700;-0.891503;0.379828
5.710;-0.901991;0.365915
5.720;-0.913380;0.351522
5.730;-0.925800;0.336952
5.740;-0.939267;0.323158
5.750;-0.953685;0.311357
5.760;-0.968830;0.302622
5.770;-0.984352;0.297601
5.780;-0.999850;0.296394
5.790;-1.014992;0.298564
5.800;-1.029618;0.303276
5.810;-1.043766;0.309502
5.820;-1.057604;0.316260
5.830;-1.071301;0.322817
5.840;-1.084930;0.328784
5.850;-1.098438;0.334091
5.860;-1.111702;0.338882
5.870;-1.124591;0.343378
5.880;-1.136986;0.347771
5.890;-1.148746;0.352150
5.900;-1.159675;0.356492
5.910;-1.169533;0.360691
5.920;-1.178101;0.364633
5.930;-1.185277;0.368261
5.940;-1.191144;0.371609
5.950;-1.195999;0.374771
5.960;-1.200319;0.377870
5.970;-1.204648;0.381047
5.980;-1.209458;0.384445
5.990;-1.215008;0.388202
6.000;-1.221289;0.392414
6.010;-1.228064;0.397117
6.020;-1.234983;0.402288
6.030;-1.241715;0.407866
6.040;-1.248037;0.413742
6.050;-1.253835;0.419738
6.060;-1.259069;0.425607
6.070;-1.263705;0.431077
6.080;-1.267704;0.435939
6.090;-1.271048;0.440104
6.100;-1.273818;0.443646
6.110;-1.276271;0.446813
6.120;-1.278874;0.450033
6.130;-1.282268;0.453860
6.140;-1.287141;0.458860
6.150;-1.294045;0.465442
6.160;-1.303195;0.473737
6.170;-1.314349;0.483567
6.180;-1.326778;0.494506
6.190;-1.339369;0.506007
6.200;-1.350803;0.517519
6.210;-1.359789;0.528567
6.220;-1.365289;0.538778
6.230;-1.366693;0.547867
6.240;-1.363900;0.555627
6.250;-1.357280;0.561921
6.260;-1.347522;0.566703
6.270;-1.335444;0.570045
6.280;-1.321820;0.572168
6.290;-1.307266;0.573428
6.300;-1.292188;0.574250
6.310;-1.276794;0.574986
6.320;-1.261158;0.575785
6.330;-1.245344;0.576524
6.340;-1.229539;0.576858
6.350;-1.214136;0.576357
6.360;-1.199673;0.574663
6.370;-1.186647;0.571605
6.380;-1.175272;0.567242
6.390;-1.165307;0.561868
6.400;-1.156011;0.555958
6.410;-1.146304;0.550064
6.420;-1.135052;0.544662
6.430;-1.121401;0.540006
6.440;-1.104990;0.536063
6.450;-1.085979;0.532539
6.460;-1.064885;0.528986
6.470;-1.042329;0.524929
6.480;-1.018822;0.519968
6.490;-0.994654;0.513794
6.500;-0.969927;0.506171
6.510;-0.944663;0.496917
6.520;-0.918918;0.485966
6.530;-0.892838;0.473469
6.540;-0.866623;0.459870
6.550;-0.840422;0.445887
6.560;-0.814235;0.432381
6.570;-0.787889;0.420147
6.580;-0.761111;0.409708
6.590;-0.733675;0.401220
6.600;-0.705560;0.394535
6.610;-0.677043;0.389400
6.620;-0.648678;0.385677
6.630;-0.621166;0.383453
6.640;-0.595163;0.382972
6.650;-0.571083;0.384427
6.660;-0.548970;0.387753
6.670;-0.528484;0.392518
6.680;-0.509029;0.398007
6.690;-0.489953;0.403455
6.700;-0.470732;0.408324
6.710;-0.451072;0.412490
6.720;-0.430910;0.416253
6.730;-0.410367;0.420185
6.740;-0.389685;0.424902
6.750;-0.369165;0.430858
6.760;-0.349122;0.438213
6.770;-0.329841;0.446802
6.780;-0.311559;0.456189
6.790;-0.294454;0.465821
6.800;-0.278638;0.475190
6.810;-0.264162;0.483946
6.820;-0.251020;0.491887
6.830;-0.239145;0.498876
6.840;-0.228412;0.504787
6.850;-0.218616;0.509514
6.860;-0.209470;0.513037
6.870;-0.200620;0.515451
6.880;-0.191732;0.516949
6.890;-0.182598;0.517744
6.900;-0.173196;0.518007
6.910;-0.163670;0.517814
6.920;-0.154208;0.517136
6.930;-0.144918;0.515871
6.940;-0.135749;0.513912
6.950;-0.126508;0.511224
6.960;-0.116943;0.507883
6.970;-0.106842;0.504069
6.980;-0.096103;0.500015
6.990;-0.084748;0.495959
7.000;-0.072901;0.492094
7.010;-0.060753;0.488541
7.020;-0.048569;0.485330
7.030;-0.036691;0.482416
7.040;-0.025512;0.479717
7.050;-0.015370;0.477168
7.060;-0.006413;0.474751
7.070;0.001481;0.472519
7.080;0.008649;0.470590
7.090;0.015473;0.469139
7.100;0.022173;0.468353
7.110;0.028692;0.468367
7.120;0.034739;0.469183
7.130;0.039977;0.470631
7.140;0.044243;0.472392
7.150;0.047674;0.474097
7.160;0.050694;0.475443
7.170;0.053840;0.476304
7.180;0.057540;0.476756
7.190;0.061923;0.477028
7.200;0.066749;0.477393
7.210;0.071481;0.478080
7.220;0.075425;0.479233
7.230;0.077887;0.480924
7.240;0.078298;0.483161
7.250;0.076304;0.485878
7.260;0.071815;0.488940
7.270;0.064995;0.492192
7.280;0.056168;0.495551
7.290;0.045673;0.499054
7.300;0.033734;0.502858
7.310;0.020401;0.507182
7.320;0.005599;0.512260
7.330;-0.010767;0.518304
7.340;-0.028710;0.525478
7.350;-0.048132;0.533846
7.360;-0.068888;0.543312
7.370;-0.090926;0.553588
7.380;-0.114420;0.564246
7.390;-0.139838;0.574861
7.400;-0.167901;0.585168
7.410;-0.199467;0.595136
7.420;-0.235370;0.604914
7.430;-0.276257;0.614677
7.440;-0.322415;0.624488
7.450;-0.373616;0.634238
7.460;-0.429050;0.643691
7.470;-0.487356;0.652575
7.480;-0.546791;0.660651
7.490;-0.605472;0.667736
7.500;-0.661662;0.673678
7.510;-0.714022;0.678363
7.520;-0.761761;0.681745
7.530;-0.804653;0.683891
7.540;-0.842912;0.684969
7.550;-0.876991;0.685146
7.560;-0.907346;0.684434
7.570;-0.934258;0.682589
7.580;-0.957740;0.679167
7.590;-0.977545;0.673706
7.600;-0.993279;0.665945
7.610;-1.004596;0.655946
7.620;-1.011426;0.644080
7.630;-1.014123;0.630911
7.640;-1.013469;0.617038
7.650;-1.010486;0.602969
7.660;-1.006151;0.589092
7.670;-1.001132;0.575735
7.680;-0.995678;0.563265
7.690;-0.989704;0.552106
7.700;-0.983013;0.542657
7.710;-0.975539;0.535151
7.720;-0.967501;0.529545
7.730;-0.959387;0.525526
7.740;-0.951778;0.522604
7.750;-0.945110;0.520267
7.760;-0.939447;0.518111
7.770;-0.934406;0.515908
7.780;-0.929244;0.513609
7.790;-0.923112;0.511279
7.800;-0.915370;0.508992
7.810;-0.905842;0.506775
7.820;-0.894879;0.504611
7.830;-0.883209;0.502541
7.840;-0.871636;0.500753
7.850;-0.860725;0.499589
7.860;-0.850628;0.499429
7.870;-0.841104;0.500524
7.880;-0.831738;0.502868
7.890;-0.822225;0.506205
7.900;-0.812601;0.510161
7.910;-0.803317;0.514446
7.920;-0.795139;0.519002
7.930;-0.788906;0.524026
7.940;-0.785253;0.529875
7.950;-0.784428;0.536907
7.960;-0.786251;0.545351
7.970;-0.790223;0.555256
7.980;-0.795707;0.566511
7.990;-0.802109;0.578910
