Time[s];COPx[cm];COPy[cm]
0.010;-5.851953;-0.290570
0.020;-5.860793;-0.294454
0.030;-5.870498;-0.298622
0.040;-5.881632;-0.303277
0.050;-5.894467;-0.308553
0.060;-5.908994;-0.314470
0.070;-5.925097;-0.320919
0.080;-5.942820;-0.327711
0.090;-5.962599;-0.334689
0.100;-5.985352;-0.341794
0.110;-6.012348;-0.348999
0.120;-6.044922;-0.356120
0.130;-6.084078;-0.362607
0.140;-6.130134;-0.367475
0.150;-6.182487;-0.369448
0.160;-6.239581;-0.367303
0.170;-6.299098;-0.360286
0.180;-6.358339;-0.348452
0.190;-6.414712;-0.332720
0.200;-6.466191;-0.314611
0.210;-6.511646;-0.295750
0.220;-6.550965;-0.277383
0.230;-6.584943;-0.260105
0.240;-6.614961;-0.243890
0.250;-6.642575;-0.228356
0.260;-6.669139;-0.213101
0.270;-6.695600;-0.197951
0.280;-6.722523;-0.183050
0.290;-6.750297;-0.168812
0.300;-6.779379;-0.155801
0.310;-6.810457;-0.144571
0.320;-6.844465;-0.135477
0.330;-6.882461;-0.128522
0.340;-6.925437;-0.123286
0.350;-6.974085;-0.119015
0.360;-7.028538;-0.114852
0.370;-7.088128;-0.110109
0.380;-7.151242;-0.104481
0.390;-7.215388;-0.098124
0.400;-7.277529;-0.091579
0.410;-7.334661;-0.085581
0.420;-7.384483;-0.080831
0.430;-7.425922;-0.077782
0.440;-7.459260;-0.076501
0.450;-7.485804;-0.076626
0.460;-7.507241;-0.077446
0.470;-7.524974;-0.078091
0.480;-7.539703;-0.077734
0.490;-7.551396;-0.075747
0.500;-7.559572;-0.071724
0.510;-7.563723;-0.065429
0.520;-7.563666;-0.056744
0.530;-7.559719;-0.045684
0.540;-7.552672;-0.032451
0.550;-7.543610;-0.017480
0.560;-7.533670;-0.001386
0.570;-7.523783;0.015170
0.580;-7.514485;0.031704
0.590;-7.505828;0.048108
0.600;-7.497410;0.064729
0.610;-7.488543;0.082271
0.620;-7.478482;0.101539
0.630;-7.466673;0.123146
0.640;-7.452904;0.147308
0.650;-7.437324;0.173782
0.660;-7.420336;0.201933
0.670;-7.402462;0.230861
0.680;-7.384202;0.259541
0.690;-7.365925;0.286992
0.700;-7.347758;0.312469
0.710;-7.329522;0.335649
0.720;-7.310758;0.356751
0.730;-7.290867;0.376546
0.740;-7.269321;0.396208
0.750;-7.245890;0.417041
0.760;-7.220787;0.440136
0.770;-7.194662;0.466100
0.780;-7.168432;0.494922
0.790;-7.142976;0.526078
0.800;-7.118818;0.558809
0.810;-7.095965;0.592532
0.820;-7.073976;0.627194
0.830;-7.052249;0.663431
0.840;-7.030360;0.702416
0.850;-7.008319;0.745438
0.860;-6.986654;0.793418
0.870;-6.966305;0.846517
0.880;-6.948369;0.904023
0.890;-6.933765;0.964506
0.900;-6.922948;1.026171
0.910;-6.915762;1.087259
0.920;-6.911484;1.146381
0.930;-6.909010;1.202713
0.940;-6.907073;1.256059
0.950;-6.904400;1.306782
0.960;-6.899807;1.355615
0.970;-6.892271;1.403383
0.980;-6.881016;1.450754
0.990;-6.865612;1.498086
1.000;-6.846055;1.545450
1.010;-6.822761;1.592750
1.020;-6.796433;1.639882
1.030;-6.767841;1.686815
1.040;-6.737634;1.733590
1.050;-6.706280;1.780251
1.060;-6.674144;1.826767
1.070;-6.641619;1.873003
1.080;-6.609202;1.918770
1.090;-6.577482;1.963907
1.100;-6.547051;2.008350
1.110;-6.518419;2.052146
1.120;-6.491961;2.095426
1.130;-6.467937;2.138382
1.140;-6.446527;2.181283
1.150;-6.427859;2.224506
1.160;-6.411980;2.268546
1.170;-6.398767;2.313927
1.180;-6.387852;2.361048
1.190;-6.378654;2.410016
1.200;-6.370570;2.460600
1.210;-6.363229;2.512296
1.220;-6.356664;2.564498
1.230;-6.351302;2.616657
1.240;-6.347772;2.668388
1.250;-6.346629;2.719494
1.260;-6.348162;2.769888
1.270;-6.352385;2.819488
1.280;-6.359218;2.868135
1.290;-6.368723;2.915557
1.300;-6.381246;2.961389
1.310;-6.397320;3.005218
1.320;-6.417388;3.046608
1.330;-6.441426;3.085122
1.340;-6.468680;3.120295
1.350;-6.497626;3.151608
1.360;-6.526191;3.178485
1.370;-6.552193;3.200355
1.380;-6.573818;3.216798
1.390;-6.589998;3.227738
1.400;-6.600546;3.233591
1.410;-6.606012;3.235295
1.420;-6.607356;3.234174
1.430;-6.605557;3.231696
1.440;-6.601313;3.229204
1.450;-6.594915;3.227731
1.460;-6.586293;3.227926
1.470;-6.575174;3.230066
1.480;-6.561242;3.234129
1.490;-6.544236;3.239906
1.500;-6.523975;3.247114
1.510;-6.500340;3.255497
1.520;-6.473216;3.264871
1.530;-6.442469;3.275100
1.540;-6.407954;3.286028
1.550;-6.369563;3.297435
1.560;-6.327316;3.309088
1.570;-6.281430;3.320873
1.580;-6.232333;3.332959
1.590;-6.180632;3.345863
1.600;-6.127042;3.360373
1.610;-6.072337;3.377309
1.620;-6.017326;3.397255
1.630;-5.962823;3.420379
1.640;-5.909589;3.446427
1.650;-5.858256;3.474851
1.660;-5.809270;3.505008
1.670;-5.762897;3.536337
1.680;-5.719301;3.568446
1.690;-5.678642;3.601087
1.700;-5.641147;3.634024
1.710;-5.607119;3.666869
1.720;-5.576910;3.698990
1.730;-5.550894;3.729539
1.740;-5.529438;3.757593
1.750;-5.512889;3.782324
1.760;-5.501538;3.803115
1.770;-5.495556;3.819603
1.780;-5.494938;3.831657
1.790;-5.499466;3.839319
1.800;-5.508737;3.842734
1.810;-5.522205;3.842096
1.820;-5.539241;3.837641
1.830;-5.559159;3.829678
1.840;-5.581264;3.818588
1.850;-5.604921;3.804775
1.860;-5.629652;3.788549
1.870;-5.655213;3.770018
1.880;-5.681619;3.749027
1.890;-5.709091;3.725198
1.900;-5.737937;3.698060
1.910;-5.768426;3.667224
1.920;-5.800694;3.632508
1.930;-5.834743;3.593948
1.940;-5.870522;3.551697
1.950;-5.908050;3.505887
1.960;-5.947505;3.456497
1.970;-5.989201;3.403259
1.980;-6.033460;3.345560
1.990;-6.080377;3.282395
2.000;-6.129583;3.212376
2.010;-6.180138;3.133920
2.020;-6.230640;3.045620
2.030;-6.279547;2.946759
2.040;-6.325532;2.837788
2.050;-6.367677;2.720589
2.060;-6.405445;2.598390
2.070;-6.438522;2.475331
2.080;-6.466693;2.355786
2.090;-6.489821;2.243612
2.100;-6.507938;2.141554
2.110;-6.521351;2.050953
2.120;-6.530674;1.971824
2.130;-6.536715;1.903193
2.140;-6.540242;1.843548
2.150;-6.541729;1.791248
2.160;-6.541222;1.744798
2.170;-6.538405;1.702996
2.180;-6.532856;1.664985
2.190;-6.524376;1.630259
2.200;-6.513264;1.598590
2.210;-6.500402;1.569883
2.220;-6.487145;1.543954
2.230;-6.475035;1.520350
2.240;-6.465486;1.498286
2.250;-6.459547;1.476734
2.260;-6.457812;1.454636
2.270;-6.460485;1.431120
2.280;-6.467528;1.405643
2.290;-6.478836;1.377980
2.300;-6.494420;1.348058
2.310;-6.514592;1.315712
2.320;-6.540107;1.280492
2.330;-6.572138;1.241645
2.340;-6.612019;1.198329
2.350;-6.660791;1.150002
2.360;-6.718693;1.096814
2.370;-6.784787;1.039812
2.380;-6.856897;0.980839
2.390;-6.931901;0.922160
2.400;-7.006283;0.865953
2.410;-7.076758;0.813859
2.420;-7.140785;0.766682
2.430;-7.196856;0.724317
2.440;-7.244560;0.685897
2.450;-7.284458;0.650146
2.460;-7.317812;0.615833
2.470;-7.346204;0.582169
2.480;-7.371142;0.549010
2.490;-7.393751;0.516818
2.500;-7.414661;0.486440
2.510;-7.434056;0.458829
2.520;-7.451832;0.434760
2.530;-7.467761;0.414608
2.540;-7.481592;0.398198
2.550;-7.493109;0.384788
2.560;-7.502173;0.373200
2.570;-7.508792;0.362096
2.580;-7.513168;0.350355
2.590;-7.515711;0.337400
2.600;-7.516995;0.323378
2.610;-7.517669;0.309065
2.620;-7.518348;0.295533
2.630;-7.519518;0.283695
2.640;-7.521470;0.273934
2.650;-7.524266;0.265970
2.660;-7.527752;0.259001
2.670;-7.531601;0.252003
2.680;-7.535397;0.244054
2.690;-7.538740;0.234570
2.700;-7.541347;0.223392
2.710;-7.543093;0.210742
2.720;-7.544003;0.197104
2.730;-7.544180;0.183060
2.740;-7.543753;0.169154
2.750;-7.542824;0.155757
2.760;-7.541478;0.142954
2.770;-7.539809;0.130489
2.780;-7.537960;0.117816
2.790;-7.536125;0.104233
2.800;-7.534516;0.089077
2.810;-7.533337;0.071926
2.820;-7.532786;0.052747
2.830;-7.533101;0.031948
2.840;-7.534577;0.010268
2.850;-7.537528;-0.011447
2.860;-7.542182;-0.032530
2.870;-7.548576;-0.052691
2.880;-7.556500;-0.072062
2.890;-7.565527;-0.091074
2.900;-7.575121;-0.110232
2.910;-7.584783;-0.129903
2.920;-7.594194;-0.150185
2.930;-7.603313;-0.170884
2.940;-7.612386;-0.191574
2.950;-7.621832;-0.211702
2.960;-7.632064;-0.230695
2.970;-7.643303;-0.248022
2.980;-7.655489;-0.263229
2.990;-7.668335;-0.275989
3.000;-7.681504;-0.286180
3.010;-7.694838;-0.293966
3.020;-7.708524;-0.299802
3.030;-7.723100;-0.304312
3.040;-7.739281;-0.308076
3.050;-7.757697;-0.311439
3.060;-7.778603;-0.314459
3.070;-7.801663;-0.317024
3.080;-7.825852;-0.319046
3.090;-7.849528;-0.320650
3.100;-7.870708;-0.322273
3.110;-7.887480;-0.324679
3.120;-7.898473;-0.328896
3.130;-7.903222;-0.336056
3.140;-7.902281;-0.347170
3.150;-7.897034;-0.362858
3.160;-7.889267;-0.383162
3.170;-7.880671;-0.407500
3.180;-7.872425;-0.434778
3.190;-7.864986;-0.463628
3.200;-7.858129;-0.492669
3.210;-7.851219;-0.520742
3.220;-7.843608;-0.547065
3.230;-7.834983;-0.571266
3.240;-7.825527;-0.593285
3.250;-7.815829;-0.613178
3.260;-7.806631;-0.630917
3.270;-7.798541;-0.646277
3.280;-7.791856;-0.658836
3.290;-7.786507;-0.668065
3.300;-7.782133;-0.673437
3.310;-7.778210;-0.674537
3.320;-7.774222;-0.671161
3.330;-7.769810;-0.663413
3.340;-7.764895;-0.651754
3.350;-7.759701;-0.636983
3.360;-7.754690;-0.620126
3.370;-7.750428;-0.602252
3.380;-7.747419;-0.584232
3.390;-7.745970;-0.566483
3.400;-7.746111;-0.548790
3.410;-7.747573;-0.530296
3.420;-7.749812;-0.509720
3.430;-7.752049;-0.485714
3.440;-7.753343;-0.457234
3.450;-7.752716;-0.423798
3.460;-7.749296;-0.385548
3.470;-7.742473;-0.343144
3.480;-7.731975;-0.297514
3.490;-7.717834;-0.249588
3.500;-7.700276;-0.200060
3.510;-7.679578;-0.149270
3.520;-7.656003;-0.097213
3.530;-7.629834;-0.043666
3.540;-7.601463;0.011622
3.550;-7.571442;0.068754
3.560;-7.540447;0.127560
3.570;-7.509164;0.187539
3.580;-7.478175;0.247878
3.590;-7.447913;0.307573
3.600;-7.418634;0.365604
3.610;-7.390395;0.421123
3.620;-7.362983;0.473585
3.630;-7.335878;0.522754
3.640;-7.308360;0.568622
3.650;-7.279778;0.611297
3.660;-7.249921;0.650931
3.670;-7.219261;0.687685
3.680;-7.188917;0.721722
3.690;-7.160326;0.753202
3.700;-7.134795;0.782298
3.710;-7.113149;0.809248
3.720;-7.095594;0.834417
3.730;-7.081799;0.858312
3.740;-7.071098;0.881509
3.750;-7.062725;0.904491
3.760;-7.055995;0.927472
3.770;-7.050417;0.950303
3.780;-7.045744;0.972540
3.790;-7.041948;0.993631
3.800;-7.039143;1.013167
3.810;-7.037464;1.031039
3.820;-7.036959;1.047416
3.830;-7.037561;1.062526
3.840;-7.039140;1.076363
3.850;-7.041602;1.088503
3.860;-7.044929;1.098184
3.870;-7.049125;1.104622
3.880;-7.054080;1.107386
3.890;-7.059445;1.106628
3.900;-7.064606;1.103058
3.910;-7.068776;1.097704
3.920;-7.071146;1.091592
3.930;-7.071014;1.085507
3.940;-7.067867;1.079879
3.950;-7.061392;1.074827
3.960;-7.051456;1.070259
3.970;-7.038090;1.065957
3.980;-7.021477;1.061616
3.990;-7.001928;1.056841
4.000;-6.979831;1.051184
4.010;-6.955588;1.044231
4.020;-6.929553;1.035754
4.030;-6.901994;1.025840
4.040;-6.873072;1.014922
4.050;-6.842852;1.003675
4.060;-6.811394;0.992811
4.070;-6.778882;0.982820
4.080;-6.745745;0.973790
4.090;-6.712692;0.965328
4.100;-6.680594;0.956672
4.110;-6.650267;0.946907
4.120;-6.622216;0.935234
4.130;-6.596519;0.921167
4.140;-6.572907;0.904586
4.150;-6.551001;0.885624
4.160;-6.530564;0.864475
4.170;-6.511613;0.841224
4.180;-6.494351;0.815829
4.190;-6.478987;0.788268
4.200;-6.465574;0.758792
4.210;-6.453949;0.728129
4.220;-6.443801;0.697527
4.230;-6.434781;0.668592
4.240;-6.426598;0.642972
4.250;-6.419042;0.622020
4.260;-6.411945;0.606564
4.270;-6.405102;0.596876
4.280;-6.398226;0.592821
4.290;-6.390943;0.594069
4.300;-6.382853;0.600245
4.310;-6.373634;0.610942
4.320;-6.363138;0.625617
4.330;-6.351438;0.643455
4.340;-6.338811;0.663352
4.350;-6.325637;0.684045
4.360;-6.312279;0.704345
4.370;-6.299004;0.723358
4.380;-6.285959;0.740559
4.390;-6.273172;0.755742
4.400;-6.260557;0.768906
4.410;-6.247893;0.780178
4.420;-6.234832;0.789797
4.430;-6.220963;0.798099
4.440;-6.205948;0.805462
4.450;-6.189697;0.812204
4.460;-6.172469;0.818488
4.470;-6.154829;0.824301
4.480;-6.137448;0.829518
4.490;-6.120836;0.834048
4.500;-6.105149;0.837946
4.510;-6.090160;0.841473
4.520;-6.075402;0.845079
4.530;-6.060374;0.849348
4.540;-6.044725;0.854944
4.550;-6.028356;0.862536
4.560;-6.011446;0.872722
4.570;-5.994400;0.885938
4.580;-5.977701;0.902413
4.590;-5.961684;0.922183
4.600;-5.946341;0.945135
4.610;-5.931266;0.971070
4.620;-5.915777;0.999692
4.630;-5.899155;1.030535
4.640;-5.880856;1.062882
4.650;-5.860632;1.095766
4.660;-5.838533;1.128100
4.670;-5.814835;1.158887
4.680;-5.789931;1.187433
4.690;-5.764204;1.213463
4.700;-5.737905;1.237114
4.710;-5.711065;1.258807
4.720;-5.683500;1.279033
4.730;-5.654919;1.298117
4.740;-5.625099;1.316068
4.750;-5.594056;1.332546
4.760;-5.562128;1.346963
4.770;-5.529899;1.358668
4.780;-5.498004;1.367180
4.790;-5.466919;1.372369
4.800;-5.436862;1.374496
4.810;-5.407873;1.374074
4.820;-5.380011;1.371590
4.830;-5.353568;1.367260
4.840;-5.329183;1.360957
4.850;-5.307790;1.352341
4.860;-5.290406;1.341091
4.870;-5.277865;1.327114
4.880;-5.270601;1.310622
4.890;-5.268562;1.292103
4.900;-5.271252;1.272205
4.910;-5.277861;1.251613
4.920;-5.287433;1.230939
4.930;-5.299063;1.210663
4.940;-5.312073;1.191121
4.950;-5.326124;1.172530
4.960;-5.341230;1.155020
4.970;-5.357646;1.138654
4.980;-5.375686;1.123430
4.990;-5.395535;1.109272
5.000;-5.417158;1.095997
5.010;-5.440343;1.083292
5.020;-5.464868;1.070714
5.030;-5.490682;1.057772
5.040;-5.518001;1.044061
5.050;-5.547245;1.029403
5.060;-5.578860;1.013932
5.070;-5.613141;0.998081
5.080;-5.650139;0.982473
5.090;-5.689651;0.967724
5.100;-5.731267;0.954252
5.110;-5.774429;0.942165
5.120;-5.818529;0.931310
5.130;-5.863031;0.921428
5.140;-5.907566;0.912326
5.150;-5.951939;0.903950
5.160;-5.996032;0.896334
5.170;-6.039657;0.889482
5.180;-6.082446;0.883292
5.190;-6.123831;0.877569
5.200;-6.163130;0.872107
5.210;-6.199707;0.866764
5.220;-6.233147;0.861503
5.230;-6.263362;0.856384
5.240;-6.290546;0.851561
5.250;-6.315008;0.847282
5.260;-6.336966;0.843887
5.270;-6.356411;0.841787
5.280;-6.373142;0.841372
5.290;-6.386929;0.842863
5.300;-6.397705;0.846163
5.310;-6.405660;0.850797
5.320;-6.411202;0.855996
5.330;-6.414849;0.860900
5.340;-6.417149;0.864770
5.350;-6.418688;0.867124
5.360;-6.420129;0.867777
5.370;-6.422228;0.866800
5.380;-6.425761;0.864435
5.390;-6.431379;0.860986
5.400;-6.439471;0.856714
5.410;-6.450095;0.851757
5.420;-6.463013;0.846115
5.430;-6.477839;0.839719
5.440;-6.494233;0.832562
5.450;-6.512059;0.824797
5.460;-6.531408;0.816751
5.470;-6.552492;0.808858
5.480;-6.575431;0.801549
5.490;-6.600051;0.795161
5.500;-6.625772;0.789897
5.510;-6.651639;0.785846
5.520;-6.676485;0.783007
5.530;-6.699160;0.781310
5.540;-6.718802;0.780623
5.550;-6.735035;0.780773
5.560;-6.748031;0.781589
5.570;-6.758376;0.782933
5.580;-6.766822;0.784723
5.590;-6.774029;0.786924
5.600;-6.780428;0.789524
5.610;-6.786227;0.792492
5.620;-6.791536;0.795712
5.630;-6.796507;0.798949
5.640;-6.801400;0.801883
5.650;-6.806532;0.804219
5.660;-6.812134;0.805826
5.670;-6.818227;0.806818
5.680;-6.824605;0.807531
5.690;-6.830962;0.808394
5.700;-6.837077;0.809769
5.710;-6.842977;0.811823
5.720;-6.848969;0.814458
5.730;-6.855539;0.817348
5.740;-6.863138;0.820058
5.750;-6.871954;0.822216
5.760;-6.881742;0.823662
5.770;-6.891802;0.824490
5.780;-6.901136;0.824987
5.790;-6.908745;0.825493
5.800;-6.913966;0.826265
5.810;-6.916705;0.827376
5.820;-6.917464;0.828686
5.830;-6.917147;0.829865
5.840;-6.916741;0.830466
5.850;-6.916971;0.830055
5.860;-6.918085;0.828358
5.870;-6.919800;0.825379
5.880;-6.921438;0.821436
5.890;-6.922188;0.817087
5.900;-6.921390;0.812949
5.910;-6.918724;0.809491
5.920;-6.914244;0.806872
5.930;-6.908250;0.804924
5.940;-6.901075;0.803308
5.950;-6.892876;0.801763
5.960;-6.883551;0.800330
5.970;-6.872818;0.799421
5.980;-6.860400;0.799703
5.990;-6.846208;0.801867
6.000;-6.830390;0.806384
6.010;-6.813257;0.813335
6.020;-6.795107;0.822369
6.030;-6.776083;0.832775
6.040;-6.756097;0.843626
6.050;-6.734863;0.853965
6.060;-6.712011;0.862948
6.070;-6.687218;0.869948
6.080;-6.660289;0.874621
6.090;-6.631153;0.876950
6.100;-6.599809;0.877257
6.110;-6.566289;0.876133
6.120;-6.530700;0.874287
6.130;-6.493327;0.872349
6.140;-6.454705;0.870702
6.150;-6.415609;0.869423
6.160;-6.376922;0.868353
6.170;-6.339444;0.867243
6.180;-6.303709;0.865878
6.190;-6.269874;0.864130
6.200;-6.237729;0.861954
6.210;-6.206815;0.859345
6.220;-6.176616;0.856317
6.230;-6.146743;0.852890
6.240;-6.117061;0.849073
6.250;-6.087714;0.844829
6.260;-6.059059;0.840048
6.270;-6.031535;0.834554
6.280;-6.005532;0.828161
6.290;-5.981304;0.820745
6.300;-5.958926;0.812274
6.310;-5.938307;0.802787
6.320;-5.919228;0.792350
6.330;-5.901400;0.781020
6.340;-5.884509;0.768854
6.350;-5.868246;0.755923
6.360;-5.852316;0.742334
6.370;-5.836457;0.728205
6.380;-5.820445;0.713617
6.390;-5.804103;0.698572
6.400;-5.787312;0.683010
6.410;-5.770038;0.666903
6.420;-5.752366;0.650363
6.430;-5.734513;0.633681
6.440;-5.716797;0.617240
6.450;-5.699564;0.601343
6.460;-5.683065;0.586074
6.470;-5.667335;0.571277
6.480;-5.652094;0.556678
6.490;-5.636758;0.542066
6.500;-5.620561;0.527435
6.510;-5.602768;0.513005
6.520;-5.582888;0.499119
6.530;-5.560796;0.486077
6.540;-5.536723;0.473992
6.550;-5.511135;0.462738
6.560;-5.484563;0.451996
6.570;-5.457459;0.441366
6.580;-5.430110;0.430488
6.590;-5.402642;0.419105
6.600;-5.375099;0.407064
6.610;-5.347578;0.394274
6.620;-5.320337;0.380677
6.630;-5.293834;0.366248
6.640;-5.268646;0.351028
6.650;-5.245324;0.335173
6.660;-5.224267;0.318974
6.670;-5.205683;0.302805
6.680;-5.189643;0.287004
6.690;-5.176158;0.271755
6.700;-5.165227;0.257070
6.710;-5.156841;0.242898
6.720;-5.150973;0.229272
6.730;-5.147619;0.216387
6.740;-5.146846;0.204555
6.750;-5.148830;0.194081
6.760;-5.153817;0.185117
6.770;-5.161994;0.177594
6.780;-5.173329;0.171228
6.790;-5.187460;0.165618
6.800;-5.203684;0.160386
6.810;-5.221051;0.155304
6.820;-5.238511;0.150371
6.830;-5.255069;0.145824
6.840;-5.269906;0.142058
6.850;-5.282489;0.139492
6.860;-5.292627;0.138416
6.870;-5.300453;0.138896
6.880;-5.306338;0.140774
6.890;-5.310765;0.143747
6.900;-5.314220;0.147482
6.910;-5.317115;0.151717
6.920;-5.319726;0.156316
6.930;-5.322158;0.161277
6.940;-5.324373;0.166715
6.950;-5.326277;0.172843
6.960;-5.327826;0.179965
6.970;-5.329091;0.188453
6.980;-5.330215;0.198689
6.990;-5.331305;0.210995
7.000;-5.332309;0.225576
7.010;-5.332981;0.242484
7.020;-5.332950;0.261611
7.030;-5.331874;0.282662
7.040;-5.329605;0.305145
7.050;-5.326287;0.328394
7.060;-5.322363;0.351668
7.070;-5.318469;0.374309
7.080;-5.315263;0.395889
7.090;-5.313257;0.416269
7.100;-5.312707;0.435541
7.110;-5.313608;0.453885
7.120;-5.315758;0.471428
7.130;-5.318868;0.488177
7.140;-5.322653;0.504042
7.150;-5.326922;0.518903
7.160;-5.331616;0.532700
7.170;-5.336823;0.545498
7.180;-5.342755;0.557533
7.190;-5.349697;0.569197
7.200;-5.357946;0.580970
7.210;-5.367731;0.593292
7.220;-5.379156;0.606430
7.230;-5.392183;0.620381
7.240;-5.406690;0.634855
7.250;-5.422552;0.649347
7.260;-5.439714;0.663283
7.270;-5.458210;0.676180
7.280;-5.478116;0.687743
7.290;-5.499478;0.697875
7.300;-5.522236;0.706587
7.310;-5.546198;0.713886
7.320;-5.571066;0.719705
7.330;-5.596502;0.723926
7.340;-5.622192;0.726462
7.350;-5.647906;0.727345
7.360;-5.673536;0.726770
7.370;-5.699144;0.725090
7.380;-5.724977;0.722756
7.390;-5.751440;0.720221
7.400;-5.778972;0.717845
7.410;-5.807852;0.715817
7.420;-5.837980;0.714140
7.430;-5.868773;0.712661
7.440;-5.899273;0.711129
7.450;-5.928469;0.709296
7.460;-5.955690;0.707019
7.470;-5.980865;0.704370
7.480;-6.004516;0.701683
7.490;-6.027499;0.699491
7.500;-6.050614;0.698351
7.510;-6.074320;0.698631
7.520;-6.098642;0.700364
7.530;-6.123307;0.703268
7.540;-6.147975;0.706925
7.550;-6.172433;0.711025
7.560;-6.196664;0.715529
7.570;-6.220749;0.720682
7.580;-6.244689;0.726876
7.590;-6.268260;0.734439
7.600;-6.290991;0.743465
7.610;-6.312275;0.753724
7.620;-6.331508;0.764667
7.630;-6.348191;0.775514
7.640;-6.361990;0.785403
7.650;-6.372808;0.793607
7.660;-6.380885;0.799737
7.670;-6.386857;0.803860
7.680;-6.391691;0.806469
7.690;-6.396472;0.808308
7.700;-6.402131;0.810126
7.710;-6.409214;0.812475
7.720;-6.417794;0.815604
7.730;-6.427522;0.819445
7.740;-6.437797;0.823648
7.750;-6.447995;0.827650
7.760;-6.457701;0.830777
7.770;-6.466874;0.832398
7.780;-6.475873;0.832083
7.790;-6.485340;0.829722
7.800;-6.495977;0.825560
7.810;-6.508371;0.820130
7.820;-6.522921;0.814111
7.830;-6.539872;0.808153
7.840;-6.559376;0.802723
7.850;-6.581513;0.798004
7.860;-6.606260;0.793890
7.870;-6.633463;0.790053
7.880;-6.662822;0.786073
7.890;-6.693918;0.781581
7.900;-6.726238;0.776389
7.910;-6.759210;0.770544
7.920;-6.792275;0.764283
7.930;-6.825012;0.757895
