Time[s];COPx[cm];COPy[cm]
0.010;-0.208236;-0.340703
0.020;-0.235497;-0.336712
0.030;-0.260442;-0.332593
0.040;-0.281439;-0.328245
0.050;-0.297994;-0.323456
0.060;-0.310695;-0.317836
0.070;-0.320778;-0.310748
0.080;-0.329566;-0.301256
0.090;-0.338021;-0.288185
0.100;-0.346565;-0.270340
0.110;-0.355115;-0.246854
0.120;-0.363226;-0.217559
0.130;-0.370224;-0.183225
0.140;-0.375324;-0.145562
0.150;-0.377772;-0.106948
0.160;-0.377011;-0.069941
0.170;-0.372870;-0.036721
0.180;-0.365663;-0.008631
0.190;-0.356158;0.014072
0.200;-0.345389;0.032165
0.210;-0.334385;0.047129
0.220;-0.323930;0.060621
0.230;-0.314456;0.073906
0.240;-0.306062;0.087470
0.250;-0.298588;0.100961
0.260;-0.291667;0.113471
0.270;-0.284743;0.124023
0.280;-0.277093;0.132056
0.290;-0.267909;0.137685
0.300;-0.256442;0.141621
0.310;-0.242159;0.144779
0.320;-0.224839;0.147763
0.330;-0.204562;0.150471
0.340;-0.181581;0.151999
0.350;-0.156166;0.150883
0.360;-0.128487;0.145550
0.370;-0.098603;0.134808
0.380;-0.066544;0.118148
0.390;-0.032451;0.095805
0.400;0.003293;0.068591
0.410;0.040017;0.037620
0.420;0.076844;0.004051
0.430;0.112926;-0.031093
0.440;0.147748;-0.067022
0.450;0.181389;-0.103235
0.460;0.214595;-0.139594
0.470;0.248611;-0.176378
0.480;0.284794;-0.214263
0.490;0.324174;-0.254168
0.500;0.367085;-0.296997
0.510;0.413012;-0.343361
0.520;0.460691;-0.393370
0.530;0.508420;-0.446548
0.540;0.554471;-0.501867
0.550;0.597429;-0.557856
0.560;0.636394;-0.612727
0.570;0.671001;-0.664532
0.580;0.701336;-0.711343
0.590;0.727794;-0.751485
0.600;0.750936;-0.783788
0.610;0.771348;-0.807797
0.620;0.789532;-0.823828
0.630;0.805819;-0.832834
0.640;0.820350;-0.836095
0.650;0.833140;-0.834917
0.660;0.844221;-0.830446
0.670;0.853816;-0.823653
0.680;0.862463;-0.815401
0.690;0.871055;-0.806491
0.700;0.880736;-0.797644
0.710;0.892703;-0.789416
0.720;0.907957;-0.782079
0.730;0.927104;-0.775529
0.740;0.950286;-0.769290
0.750;0.977229;-0.762683
0.760;1.007355;-0.755127
0.770;1.039861;-0.746455
0.780;1.073742;-0.737079
0.790;1.107790;-0.727851
0.800;1.140619;-0.719696
0.810;1.170758;-0.713213
0.820;1.196792;-0.708501
0.830;1.217545;-0.705268
0.840;1.232236;-0.703118
0.850;1.240596;-0.701798
0.860;1.242899;-0.701242
0.870;1.239895;-0.701430
0.880;1.232659;-0.702193
0.890;1.222380;-0.703127
0.900;1.210161;-0.703705
0.910;1.196862;-0.703521
0.920;1.183018;-0.702506
0.930;1.168807;-0.701011
0.940;1.154074;-0.699673
0.950;1.138418;-0.699162
0.960;1.121325;-0.699896
0.970;1.102291;-0.701897
0.980;1.080911;-0.704847
0.990;1.056885;-0.708314
1.000;1.029976;-0.712010
1.010;0.999951;-0.715955
1.020;0.966573;-0.720460
1.030;0.929711;-0.725955
1.040;0.889555;-0.732773
1.050;0.846873;-0.740992
1.060;0.803159;-0.750427
1.070;0.760572;-0.760740
1.080;0.721628;-0.771603
1.090;0.688729;-0.782797
1.100;0.663652;-0.794211
1.110;0.647174;-0.805720
1.120;0.638952;-0.817030
1.130;0.637690;-0.827575
1.140;0.641530;-0.836553
1.150;0.648501;-0.843119
1.160;0.656879;-0.846671
1.170;0.665372;-0.847105
1.180;0.673137;-0.844939
1.190;0.679731;-0.841247
1.200;0.685065;-0.837433
1.210;0.689420;-0.834873
1.220;0.693474;-0.834543
1.230;0.698258;-0.836737
1.240;0.704986;-0.841009
1.250;0.714733;-0.846347
1.260;0.728084;-0.851521
1.270;0.744874;-0.855491
1.280;0.764146;-0.857717
1.290;0.784321;-0.858309
1.300;0.803522;-0.857986
1.310;0.819929;-0.857837
1.320;0.832085;-0.858985
1.330;0.839121;-0.862211
1.340;0.840867;-0.867684
1.350;0.837831;-0.874896
1.360;0.831039;-0.882847
1.370;0.821769;-0.890427
1.380;0.811234;-0.896820
1.390;0.800332;-0.901742
1.400;0.789511;-0.905386
1.410;0.778775;-0.908168
1.420;0.767800;-0.910442
1.430;0.756126;-0.912359
1.440;0.743411;-0.913925
1.450;0.729671;-0.915160
1.460;0.715415;-0.916221
1.470;0.701566;-0.917404
1.480;0.689179;-0.919048
1.490;0.679046;-0.921443
1.500;0.671355;-0.924787
1.510;0.665537;-0.929222
1.520;0.660354;-0.934852
1.530;0.654204;-0.941737
1.540;0.645532;-0.949835
1.550;0.633218;-0.958974
1.560;0.616854;-0.968861
1.570;0.596834;-0.979141
1.580;0.574274;-0.989441
1.590;0.550765;-0.999377
1.600;0.528033;-1.008518
1.610;0.507579;-1.016371
1.620;0.490366;-1.022421
1.630;0.476660;-1.026258
1.640;0.466094;-1.027738
1.650;0.457943;-1.027096
1.660;0.451487;-1.024924
1.670;0.446285;-1.022005
1.680;0.442267;-1.019060
1.690;0.439628;-1.016543
1.700;0.438636;-1.014565
1.710;0.439457;-1.012982
1.720;0.442080;-1.011559
1.730;0.446337;-1.010110
1.740;0.451962;-1.008528
1.750;0.458658;-1.006703
1.760;0.466142;-1.004419
1.770;0.474200;-1.001305
1.780;0.482774;-0.996881
1.790;0.492089;-0.990644
1.800;0.502721;-0.982158
1.810;0.515536;-0.971121
1.820;0.531483;-0.957391
1.830;0.551326;-0.941007
1.840;0.575444;-0.922217
1.850;0.603759;-0.901544
1.860;0.635804;-0.879830
1.870;0.670825;-0.858240
1.880;0.707818;-0.838113
1.890;0.745467;-0.820716
1.900;0.782042;-0.806942
1.910;0.815426;-0.797129
1.920;0.843385;-0.791070
1.930;0.864055;-0.788218
1.940;0.876486;-0.787992
1.950;0.880980;-0.790022
1.960;0.879090;-0.794206
1.970;0.873256;-0.800568
1.980;0.866241;-0.809005
1.990;0.860546;-0.819122
2.000;0.857982;-0.830271
2.010;0.859465;-0.841780
2.020;0.865044;-0.853250
2.030;0.874108;-0.864784
2.040;0.885637;-0.877059
2.050;0.898427;-0.891193
2.060;0.911237;-0.908431
2.070;0.922924;-0.929702
2.080;0.932631;-0.955167
2.090;0.940022;-0.983918
2.100;0.945425;-1.013929
2.110;0.949765;-1.042336
2.120;0.954228;-1.065995
2.130;0.959791;-1.082200
2.140;0.966814;-1.089400
2.150;0.974885;-1.087677
2.160;0.982965;-1.078809
2.170;0.989771;-1.065811
2.180;0.994206;-1.052091
2.190;0.995678;-1.040544
2.200;0.994209;-1.032892
2.210;0.990361;-1.029453
2.220;0.985056;-1.029284
2.230;0.979366;-1.030545
2.240;0.974335;-1.030975
2.250;0.970816;-1.028445
2.260;0.969322;-1.021492
2.270;0.969893;-1.009708
2.280;0.972043;-0.993799
2.290;0.974854;-0.975253
2.300;0.977229;-0.955773
2.310;0.978209;-0.936713
2.320;0.977216;-0.918756
2.330;0.974149;-0.901863
2.340;0.969300;-0.885393
2.350;0.963131;-0.868264
2.360;0.956023;-0.849121
2.370;0.948083;-0.826529
2.380;0.939106;-0.799271
2.390;0.928689;-0.766707
2.400;0.916419;-0.729086
2.410;0.902020;-0.687655
2.420;0.885406;-0.644450
2.430;0.866649;-0.601827
2.440;0.845922;-0.561865
2.450;0.823487;-0.525874
2.460;0.799703;-0.494205
2.470;0.775021;-0.466396
2.480;0.749908;-0.441608
2.490;0.724757;-0.419144
2.500;0.699817;-0.398845
2.510;0.675203;-0.381194
2.520;0.650970;-0.367090
2.530;0.627192;-0.357398
2.540;0.603991;-0.352481
2.550;0.581482;-0.351898
2.560;0.559679;-0.354425
2.570;0.538465;-0.358366
2.580;0.517681;-0.362043
2.590;0.497321;-0.364255
2.600;0.477734;-0.364545
2.610;0.459736;-0.363187
2.620;0.444546;-0.360914
2.630;0.433562;-0.358503
2.640;0.428004;-0.356330
2.650;0.428571;-0.354097
2.660;0.435246;-0.350849
2.670;0.447335;-0.345324
2.680;0.463713;-0.336503
2.690;0.483168;-0.324104
2.700;0.504659;-0.308816
2.710;0.527397;-0.292192
2.720;0.550705;-0.276236
2.730;0.573816;-0.262839
2.740;0.595749;-0.253245
2.750;0.615406;-0.247717
2.760;0.631816;-0.245503
2.770;0.644401;-0.245114
2.780;0.653092;-0.244816
2.790;0.658218;-0.243186
2.800;0.660254;-0.239568
2.810;0.659590;-0.234293
2.820;0.656475;-0.228585
2.830;0.651167;-0.224194
2.840;0.644133;-0.222841
2.850;0.636133;-0.225656
2.860;0.628103;-0.232770
2.870;0.620867;-0.243185
2.880;0.614894;-0.254917
2.890;0.610240;-0.265302
2.900;0.606739;-0.271374
2.910;0.604300;-0.270287
2.920;0.603101;-0.259784
2.930;0.603538;-0.238705
2.940;0.605958;-0.207431
2.950;0.610336;-0.168101
2.960;0.616106;-0.124415
2.970;0.622236;-0.080979
2.980;0.627478;-0.042293
2.990;0.630644;-0.011645
3.000;0.630766;0.009745
3.010;0.627133;0.023057
3.020;0.619290;0.031520
3.030;0.607076;0.039450
3.040;0.590707;0.050939
3.050;0.570803;0.068596
3.060;0.548256;0.092737
3.070;0.523956;0.121250
3.080;0.498455;0.150171
3.090;0.471735;0.174737
3.100;0.443186;0.190613
3.110;0.411789;0.194918
3.120;0.376426;0.186793
3.130;0.336198;0.167383
3.140;0.290643;0.139295
3.150;0.239832;0.105752
3.160;0.184362;0.069745
3.170;0.125295;0.033429
3.180;0.064133;-0.002097
3.190;0.002849;-0.036645
3.200;-0.056047;-0.070592
3.210;-0.109573;-0.104502
3.220;-0.154564;-0.138858
3.230;-0.188230;-0.173946
3.240;-0.208800;-0.209854
3.250;-0.216044;-0.246518
3.260;-0.211432;-0.283742
3.270;-0.197845;-0.321172
3.280;-0.178903;-0.358273
3.290;-0.158130;-0.394407
3.300;-0.138214;-0.429043
3.310;-0.120613;-0.462020
3.320;-0.105567;-0.493712
3.330;-0.092467;-0.524959
3.340;-0.080357;-0.556775
3.350;-0.068356;-0.589957
3.360;-0.055853;-0.624777
3.370;-0.042443;-0.660880
3.380;-0.027694;-0.697384
3.390;-0.010923;-0.733093
3.400;0.008878;-0.766693
3.410;0.032868;-0.796920
3.420;0.062015;-0.822742
3.430;0.096744;-0.843604
3.440;0.136732;-0.859675
3.450;0.180921;-0.871964
3.460;0.227674;-0.882168
3.470;0.275027;-0.892266
3.480;0.320946;-0.903996
3.490;0.363582;-0.918382
3.500;0.401471;-0.935472
3.510;0.433652;-0.954308
3.520;0.459651;-0.973133
3.530;0.479403;-0.989757
3.540;0.493182;-1.002038
3.550;0.501610;-1.008418
3.560;0.505731;-1.008416
3.570;0.507043;-1.002917
3.580;0.507374;-0.994085
3.590;0.508584;-0.984828
3.600;0.512167;-0.977923
3.610;0.518905;-0.975081
3.620;0.528708;-0.976327
3.630;0.540696;-0.979967
3.640;0.553503;-0.983162
3.650;0.565712;-0.982880
3.660;0.576283;-0.976812
3.670;0.584876;-0.963945
3.680;0.591964;-0.944622
3.690;0.598725;-0.920175
3.700;0.606753;-0.892334
3.710;0.617637;-0.862704
3.720;0.632544;-0.832484
3.730;0.651913;-0.802511
3.740;0.675393;-0.773513
3.750;0.702072;-0.746390
3.760;0.730955;-0.722360
3.770;0.761489;-0.702860
3.780;0.793873;-0.689260
3.790;0.828922;-0.682527
3.800;0.867476;-0.682966
3.810;0.909574;-0.690145
3.820;0.953828;-0.703006
3.830;0.997332;-0.720101
3.840;1.036219;-0.739858
3.850;1.066653;-0.760809
3.860;1.085869;-0.781743
3.870;1.092871;-0.801809
3.880;1.088569;-0.820550
3.890;1.075334;-0.837864
3.900;1.056155;-0.853924
3.910;1.033726;-0.869066
3.920;1.009794;-0.883723
3.930;0.984986;-0.898390
3.940;0.959114;-0.913582
3.950;0.931776;-0.929734
3.960;0.902936;-0.947055
3.970;0.873223;-0.965391
3.980;0.843817;-0.984209
3.990;0.815979;-1.002763
4.000;0.790459;-1.020441
4.010;0.767068;-1.037150
4.020;0.744582;-1.053560
4.030;0.721047;-1.071034
4.040;0.694361;-1.091203
4.050;0.662962;-1.115296
4.060;0.626378;-1.143519
4.070;0.585473;-1.174739
4.080;0.542314;-1.206643
4.090;0.499720;-1.236332
4.100;0.460645;-1.261114
4.110;0.427605;-1.279209
4.120;0.402302;-1.290093
4.130;0.385491;-1.294416
4.140;0.377066;-1.293565
4.150;0.376297;-1.289112
4.160;0.382174;-1.282372
4.170;0.393796;-1.274220
4.180;0.410709;-1.265162
4.190;0.433074;-1.255515
4.200;0.461574;-1.245522
4.210;0.497051;-1.235341
4.220;0.540007;-1.224951
4.230;0.590150;-1.214122
4.240;0.646181;-1.202481
4.250;0.705883;-1.189686
4.260;0.766444;-1.175595
4.270;0.824895;-1.160334
4.280;0.878528;-1.144213
4.290;0.925232;-1.127499
4.300;0.963746;-1.110156
4.310;0.993845;-1.091694
4.320;1.016466;-1.071192
4.330;1.033690;-1.047528
4.340;1.048511;-1.019752
4.350;1.064348;-0.987509
4.360;1.084356;-0.951338
4.370;1.110719;-0.912675
4.380;1.144133;-0.873528
4.390;1.183694;-0.835967
4.400;1.227212;-0.801642
4.410;1.271807;-0.771501
4.420;1.314551;-0.745752
4.430;1.352944;-0.724029
4.440;1.385148;-0.705668
4.450;1.410017;-0.690030
4.460;1.427012;-0.676767
4.470;1.436083;-0.665945
4.480;1.437575;-0.657933
4.490;1.432143;-0.653059
4.500;1.420660;-0.651182
4.510;1.404081;-0.651397
4.520;1.383259;-0.652073
4.530;1.358770;-0.651261
4.540;1.330853;-0.647263
4.550;1.299529;-0.639125
4.560;1.264889;-0.626822
4.570;1.227445;-0.611139
4.580;1.188378;-0.593359
4.590;1.149541;-0.574948
4.600;1.113156;-0.557340
4.610;1.081270;-0.541773
4.620;1.055169;-0.529130
4.630;1.034995;-0.519774
4.640;1.019740;-0.513467
4.650;1.007624;-0.509443
4.660;0.996671;-0.506632
4.670;0.985260;-0.503921
4.680;0.972472;-0.500363
4.690;0.958171;-0.495278
4.700;0.942885;-0.488285
4.710;0.927547;-0.479293
4.720;0.913200;-0.468493
4.730;0.900751;-0.456350
4.740;0.890830;-0.443593
4.750;0.883780;-0.431131
4.760;0.879744;-0.419917
4.770;0.878810;-0.410736
4.780;0.881138;-0.404037
4.790;0.887029;-0.399880
4.800;0.896898;-0.398039
4.810;0.911152;-0.398227
4.820;0.930006;-0.400339
4.830;0.953308;-0.404595
4.840;0.980449;-0.411468
4.850;1.010402;-0.421386
4.860;1.041885;-0.434364
4.870;1.073602;-0.449780
4.880;1.104465;-0.466470
4.890;1.133728;-0.483115
4.900;1.160991;-0.498685
4.910;1.186082;-0.512740
4.920;1.208915;-0.525490
4.930;1.229405;-0.537639
4.940;1.247496;-0.550119
4.950;1.263246;-0.563803
4.960;1.276880;-0.579297
4.970;1.288739;-0.596843
4.980;1.299144;-0.616305
4.990;1.308263;-0.637184
5.000;1.316043;-0.658681
5.010;1.322235;-0.679813
5.020;1.326472;-0.699578
5.030;1.328389;-0.717135
5.040;1.327745;-0.731909
5.050;1.324541;-0.743583
5.060;1.319136;-0.752018
5.070;1.312313;-0.757089
5.080;1.305303;-0.758523
5.090;1.299700;-0.755763
5.100;1.297269;-0.747962
5.110;1.299630;-0.734114
5.120;1.307912;-0.713336
5.130;1.322443;-0.685211
5.140;1.342596;-0.650089
5.150;1.366818;-0.609230
5.160;1.392882;-0.564765
5.170;1.418303;-0.519467
5.180;1.440863;-0.476416
5.190;1.459067;-0.438580
5.200;1.472388;-0.408389
5.210;1.481177;-0.387354
5.220;1.486280;-0.375853
5.230;1.488514;-0.373153
5.240;1.488219;-0.377658
5.250;1.485056;-0.387303
5.260;1.478135;-0.399967
5.270;1.466435;-0.413804
5.280;1.449325;-0.427468
5.290;1.426929;-0.440226
5.300;1.400185;-0.451949
5.310;1.370553;-0.462986
5.320;1.339568;-0.473899
5.330;1.308408;-0.485145
5.340;1.277644;-0.496819
5.350;1.247210;-0.508589
5.360;1.216551;-0.519885
5.370;1.184897;-0.530243
5.380;1.151594;-0.539630
5.390;1.116435;-0.548541
5.400;1.079856;-0.557818
5.410;1.042927;-0.568284
5.420;1.007121;-0.580390
5.430;0.973931;-0.594046
5.440;0.944497;-0.608685
5.450;0.919340;-0.623529
5.460;0.898267;-0.637890
5.470;0.880440;-0.651342
5.480;0.864557;-0.663708
5.490;0.849097;-0.674910
5.500;0.832600;-0.684836
5.510;0.813942;-0.693309
5.520;0.792577;-0.700164
5.530;0.768678;-0.705348
5.540;0.743160;-0.708928
5.550;0.717536;-0.711023
5.560;0.693601;-0.711681
5.570;0.673016;-0.710792
5.580;0.656906;-0.708112
5.590;0.645639;-0.703385
5.600;0.638859;-0.696528
5.610;0.635737;-0.687755
5.620;0.635303;-0.677565
5.630;0.636721;-0.666605
5.640;0.639406;-0.655477
5.650;0.642999;-0.644593
5.660;0.647293;-0.634105
5.670;0.652188;-0.623905
5.680;0.657697;-0.613639
5.690;0.663981;-0.602767
5.700;0.671338;-0.590678
5.710;0.680130;-0.576892
5.720;0.690625;-0.561287
5.730;0.702826;-0.544262
5.740;0.716333;-0.526742
5.750;0.730344;-0.510011
5.760;0.743804;-0.495414
5.770;0.755677;-0.484035
5.780;0.765247;-0.476473
5.790;0.772308;-0.472765
5.800;0.777183;-0.472491
5.810;0.780578;-0.474994
5.820;0.783319;-0.479634
5.830;0.786081;-0.485993
5.840;0.789181;-0.493953
5.850;0.792524;-0.503598
5.860;0.795725;-0.514977
5.870;0.798386;-0.527849
5.880;0.800364;-0.541562
5.890;0.801903;-0.555159
5.900;0.803549;-0.567686
5.910;0.805929;-0.578572
5.920;0.809547;-0.587895
5.930;0.814742;-0.596420
5.940;0.821803;-0.605364
5.950;0.831134;-0.615978
5.960;0.843314;-0.629119
5.970;0.858950;-0.644971
5.980;0.878359;-0.663072
5.990;0.901241;-0.682575
6.000;0.926529;-0.702635
6.010;0.952521;-0.722733
6.020;0.977262;-0.742823
6.030;0.999040;-0.763272
6.040;1.016813;-0.784629
6.050;1.030445;-0.807317
6.060;1.040639;-0.831389
6.070;1.048591;-0.856421
6.080;1.055477;-0.881615
6.090;1.062008;-0.906019
6.100;1.068218;-0.928793
6.110;1.073564;-0.949392
6.120;1.077232;-0.967632
6.130;1.078479;-0.983632
6.140;1.076870;-0.997709
6.150;1.072340;-1.010259
6.160;1.065104;-1.021678
6.170;1.055481;-1.032311
6.180;1.043712;-1.042408
6.190;1.029860;-1.052097
6.200;1.013805;-1.061392
6.210;0.995332;-1.070262
6.220;0.974234;-1.078727
6.230;0.950409;-1.086956
6.240;0.923912;-1.095294
6.250;0.895012;-1.104206
6.260;0.864254;-1.114165
6.270;0.832477;-1.125561
6.280;0.800754;-1.138682
6.290;0.770240;-1.153764
6.300;0.742011;-1.171016
6.310;0.716948;-1.190535
6.320;0.695699;-1.212140
6.330;0.678673;-1.235181
6.340;0.666035;-1.258470
6.350;0.657701;-1.280387
6.360;0.653312;-1.299158
6.370;0.652224;-1.313199
6.380;0.653567;-1.321423
6.390;0.656400;-1.323406
6.400;0.659949;-1.319388
6.410;0.663863;-1.310157
6.420;0.668396;-1.296895
6.430;0.674434;-1.281058
6.440;0.683317;-1.264268
6.450;0.696456;-1.248179
6.460;0.714837;-1.234289
6.470;0.738541;-1.223720
6.480;0.766480;-1.217089
6.490;0.796465;-1.214516
6.500;0.825650;-1.215787
6.510;0.851212;-1.220548
6.520;0.871041;-1.228421
6.530;0.884184;-1.238962
6.540;0.890881;-1.251502
6.550;0.892225;-1.264990
6.560;0.889611;-1.277959
6.570;0.884242;-1.288665
6.580;0.876868;-1.295349
6.590;0.867804;-1.296567
6.600;0.857147;-1.291505
6.610;0.845023;-1.280250
6.620;0.831750;-1.263916
6.630;0.817858;-1.244570
6.640;0.804002;-1.224914
6.650;0.790870;-1.207719
6.660;0.779108;-1.195127
6.670;0.769270;-1.188009
6.680;0.761698;-1.185642
6.690;0.756366;-1.185875
6.700;0.752731;-1.185778
6.710;0.749722;-1.182563
6.720;0.745917;-1.174447
6.730;0.739871;-1.161144
6.740;0.730443;-1.143831
6.750;0.717019;-1.124625
6.760;0.699559;-1.105829
6.770;0.678532;-1.089228
6.780;0.654800;-1.075680
6.790;0.629490;-1.065075
6.800;0.603843;-1.056593
6.810;0.579030;-1.049112
6.820;0.555935;-1.041584
6.830;0.534953;-1.033237
6.840;0.515882;-1.023608
6.850;0.497968;-1.012483
6.860;0.480114;-0.999840
6.870;0.461175;-0.985834
6.880;0.440215;-0.970793
6.890;0.416615;-0.955193
6.900;0.390021;-0.939577
6.910;0.360178;-0.924441
6.920;0.326779;-0.910149
6.930;0.289424;-0.896911
6.940;0.247726;-0.884856
6.950;0.201552;-0.874145
6.960;0.151278;-0.865031
6.970;0.097957;-0.857813
6.980;0.043288;-0.852698
6.990;-0.010570;-0.849670
7.000;-0.061297;-0.848472
7.010;-0.106735;-0.848711
7.020;-0.145166;-0.850002
7.030;-0.175521;-0.852045
7.040;-0.197480;-0.854600
7.050;-0.211468;-0.857408
7.060;-0.218518;-0.860157
7.070;-0.220030;-0.862577
7.080;-0.217436;-0.864634
7.090;-0.211856;-0.866729
7.100;-0.203843;-0.869778
7.110;-0.193331;-0.875068
7.120;-0.179797;-0.883912
7.130;-0.162614;-0.897210
7.140;-0.141435;-0.915118
7.150;-0.116496;-0.936978
7.160;-0.088721;-0.961555
7.170;-0.059595;-0.987477
7.180;-0.030865;-1.013657
7.190;-0.004130;-1.039508
7.200;0.019550;-1.064851
7.210;0.039966;-1.089642
7.220;0.057887;-1.113716
7.230;0.074970;-1.136742
7.240;0.093392;-1.158402
7.250;0.115272;-1.178670
7.260;0.142005;-1.197946
7.270;0.173713;-1.216914
7.280;0.209045;-1.236198
7.290;0.245430;-1.256008
7.300;0.279719;-1.276001
7.310;0.309002;-1.295437
7.320;0.331310;-1.313509
7.330;0.345981;-1.329642
7.340;0.353562;-1.343578
7.350;0.355349;-1.355230
7.360;0.352759;-1.364426
7.370;0.346828;-1.370743
7.380;0.338055;-1.373525
7.390;0.326625;-1.372082
7.400;0.312846;-1.365956
7.410;0.297500;-1.355120
7.420;0.281879;-1.340008
7.430;0.267496;-1.321397
7.440;0.255626;-1.300210
7.450;0.246958;-1.277337
7.460;0.241502;-1.253517
7.470;0.238751;-1.229293
7.480;0.237972;-1.205012
7.490;0.238486;-1.180873
7.500;0.239866;-1.156998
7.510;0.242026;-1.133495
7.520;0.245225;-1.110486
7.530;0.249989;-1.088081
7.540;0.256951;-1.066320
7.550;0.266645;-1.045142
7.560;0.279300;-1.024415
7.570;0.294763;-1.004022
7.580;0.312600;-0.983950
7.590;0.332363;-0.964346
7.600;0.353890;-0.945515
7.610;0.377465;-0.927868
7.620;0.403745;-0.911833
7.630;0.433441;-0.897745
7.640;0.466891;-0.885754
7.650;0.503714;-0.875756
7.660;0.542725;-0.867381
7.670;0.582144;-0.860035
7.680;0.620043;-0.853007
7.690;0.654856;-0.845637
7.700;0.685780;-0.837496
7.710;0.712917;-0.828527
7.720;0.737085;-0.819049
7.730;0.759348;-0.809636
7.740;0.780464;-0.800921
7.750;0.800445;-0.793432
7.760;0.818455;-0.787529
7.770;0.833069;-0.783432
7.780;0.842805;-0.781277
7.790;0.846671;-0.781120
7.800;0.844506;-0.782869
7.810;0.836983;-0.786204
7.820;0.825313;-0.790576
7.830;0.810830;-0.795344
7.840;0.794663;-0.799990
7.850;0.777648;-0.804325
7.860;0.760461;-0.808551
7.870;0.743829;-0.813151
7.880;0.728668;-0.818668
7.890;0.716023;-0.825479
7.900;0.706852;-0.833686
7.910;0.701739;-0.843127
7.920;0.700666;-0.853478
7.930;0.702937;-0.864375
7.940;0.707258;-0.875491
7.950;0.711973;-0.886544
7.960;0.715386;-0.897226
7.970;0.716117;-0.907102
