Time[s];COPx[cm];COPy[cm]
0.010;1.375874;-1.147008
0.020;1.377300;-1.149529
0.030;1.380318;-1.153047
0.040;1.385936;-1.158379
0.050;1.394297;-1.166084
0.060;1.404784;-1.176386
0.070;1.416426;-1.189166
0.080;1.428366;-1.204028
0.090;1.440154;-1.220415
0.100;1.451779;-1.237758
0.110;1.463479;-1.255621
0.120;1.475474;-1.273793
0.130;1.487746;-1.292315
0.140;1.499957;-1.311393
0.150;1.511481;-1.331232
0.160;1.521540;-1.351813
0.170;1.529364;-1.372733
0.180;1.534326;-1.393171
0.190;1.536018;-1.412002
0.200;1.534281;-1.428008
0.210;1.529209;-1.440149
0.220;1.521151;-1.447819
0.230;1.510708;-1.451035
0.240;1.498680;-1.450480
0.250;1.485945;-1.447322
0.260;1.473268;-1.442885
0.270;1.461100;-1.438270
0.280;1.449473;-1.434111
0.290;1.438054;-1.430552
0.300;1.426361;-1.427411
0.310;1.414036;-1.424404
0.320;1.401024;-1.421274
0.330;1.387567;-1.417759
0.340;1.374038;-1.413461
0.350;1.360735;-1.407780
0.360;1.347748;-1.399994
0.370;1.334969;-1.389490
0.380;1.322197;-1.376021
0.390;1.309253;-1.359838
0.400;1.296068;-1.341629
0.410;1.282707;-1.322295
0.420;1.269372;-1.302687
0.430;1.256376;-1.283430
0.440;1.244099;-1.264916
0.450;1.232916;-1.247403
0.460;1.223091;-1.231101
0.470;1.214692;-1.216154
0.480;1.207573;-1.202535
0.490;1.201442;-1.189967
0.500;1.195991;-1.177943
0.510;1.191007;-1.165861
0.520;1.186452;-1.153194
0.530;1.182480;-1.139606
0.540;1.179390;-1.125009
0.550;1.177538;-1.109580
0.560;1.177191;-1.093729
0.570;1.178424;-1.078027
0.580;1.181092;-1.063057
0.590;1.184926;-1.049250
0.600;1.189671;-1.036750
0.610;1.195188;-1.025371
0.620;1.201443;-1.014668
0.630;1.208410;-1.004073
0.640;1.215972;-0.993074
0.650;1.223913;-0.981402
0.660;1.232021;-0.969171
0.670;1.240259;-0.956913
0.680;1.248887;-0.945449
0.690;1.258473;-0.935654
0.700;1.269791;-0.928167
0.710;1.283638;-0.923162
0.720;1.300622;-0.920245
0.730;1.320991;-0.918535
0.740;1.344553;-0.916913
0.750;1.370740;-0.914380
0.760;1.398792;-0.910398
0.770;1.427984;-0.905089
0.780;1.457784;-0.899214
0.790;1.487911;-0.893924
0.800;1.518305;-0.890383
0.810;1.549035;-0.889398
0.820;1.580207;-0.891190
0.830;1.611921;-0.895351
0.840;1.644272;-0.900973
0.850;1.677394;-0.906845
0.860;1.711448;-0.911640
0.870;1.746557;-0.914065
0.880;1.782676;-0.913000
0.890;1.819494;-0.907639
0.900;1.856402;-0.897607
0.910;1.892601;-0.882990
0.920;1.927292;-0.864283
0.930;1.959886;-0.842285
0.940;1.990140;-0.818035
0.950;2.018139;-0.792786
0.960;2.044161;-0.767983
0.970;2.068466;-0.745146
0.980;2.091137;-0.725583
0.990;2.112026;-0.710019
1.000;2.130844;-0.698278
1.010;2.147340;-0.689201
1.020;2.161496;-0.680898
1.030;2.173643;-0.671281
1.040;2.184453;-0.658685
1.050;2.194777;-0.642324
1.060;2.205435;-0.622397
1.070;2.217039;-0.599830
1.080;2.229936;-0.575825
1.090;2.244229;-0.551429
1.100;2.259844;-0.527309
1.110;2.276575;-0.503775
1.120;2.294100;-0.480966
1.130;2.312006;-0.459061
1.140;2.329818;-0.438369
1.150;2.347060;-0.419249
1.160;2.363337;-0.401927
1.170;2.378412;-0.386347
1.180;2.392268;-0.372144
1.190;2.405087;-0.358777
1.200;2.417184;-0.345746
1.210;2.428901;-0.332823
1.220;2.440523;-0.320185
1.230;2.452211;-0.308440
1.240;2.463981;-0.298521
1.250;2.475712;-0.291481
1.260;2.487208;-0.288251
1.270;2.498271;-0.289408
1.280;2.508758;-0.295075
1.290;2.518603;-0.304963
1.300;2.527832;-0.318521
1.310;2.536593;-0.335108
1.320;2.545197;-0.354093
1.330;2.554135;-0.374862
1.340;2.564040;-0.396775
1.350;2.575597;-0.419145
1.360;2.589413;-0.441288
1.370;2.605869;-0.462634
1.380;2.625015;-0.482847
1.390;2.646540;-0.501897
1.400;2.669864;-0.520035
1.410;2.694309;-0.537675
1.420;2.719278;-0.555215
1.430;2.744386;-0.572844
1.440;2.769472;-0.590380
1.450;2.794521;-0.607220
1.460;2.819514;-0.622434
1.470;2.844277;-0.634991
1.480;2.868390;-0.644037
1.490;2.891188;-0.649129
1.500;2.911869;-0.650339
1.510;2.929676;-0.648232
1.520;2.944096;-0.643734
1.530;2.955008;-0.637908
1.540;2.962707;-0.631719
1.550;2.967788;-0.625859
1.560;2.970945;-0.620699
1.570;2.972781;-0.616369
1.580;2.973687;-0.612881
1.590;2.973841;-0.610244
1.600;2.973282;-0.608524
1.610;2.972042;-0.607888
1.620;2.970279;-0.608634
1.630;2.968375;-0.611195
1.640;2.966965;-0.616058
1.650;2.966856;-0.623607
1.660;2.968852;-0.633940
1.670;2.973547;-0.646758
1.680;2.981198;-0.661397
1.690;2.991753;-0.677011
1.700;3.005020;-0.692837
1.710;3.020878;-0.708467
1.720;3.039422;-0.723978
1.730;3.060971;-0.739863
1.740;3.085927;-0.756765
1.750;3.114570;-0.775115
1.760;3.146884;-0.794839
1.770;3.182483;-0.815257
1.780;3.220683;-0.835241
1.790;3.260651;-0.853521
1.800;3.301609;-0.869012
1.810;3.342999;-0.881020
1.820;3.384547;-0.889266
1.830;3.426195;-0.893789
1.840;3.467933;-0.894823
1.850;3.509614;-0.892745
1.860;3.550833;-0.888088
1.870;3.590915;-0.881579
1.880;3.629025;-0.874095
1.890;3.664351;-0.866519
1.900;3.696268;-0.859556
1.910;3.724419;-0.853599
1.920;3.748690;-0.848745
1.930;3.769109;-0.844904
1.940;3.785736;-0.841920
1.950;3.798624;-0.839631
1.960;3.807865;-0.837858
1.970;3.813698;-0.836354
1.980;3.816587;-0.834751
1.990;3.817219;-0.832543
2.000;3.816421;-0.829157
2.010;3.815059;-0.824090
2.020;3.813986;-0.817066
2.030;3.814023;-0.808131
2.040;3.815930;-0.797660
2.050;3.820331;-0.786287
2.060;3.827648;-0.774802
2.070;3.838096;-0.764017
2.080;3.851751;-0.754629
2.090;3.868666;-0.747120
2.100;3.888951;-0.741710
2.110;3.912772;-0.738375
2.120;3.940282;-0.736915
2.130;3.971512;-0.737027
2.140;4.006280;-0.738337
2.150;4.044137;-0.740353
2.160;4.084357;-0.742372
2.170;4.125988;-0.743405
2.180;4.167989;-0.742213
2.190;4.209424;-0.737509
2.200;4.249670;-0.728265
2.210;4.288524;-0.714003
2.220;4.326176;-0.694928
2.230;4.363030;-0.671815
2.240;4.399446;-0.645703
2.250;4.435502;-0.617544
2.260;4.470875;-0.587987
2.270;4.504885;-0.557376
2.280;4.536707;-0.525921
2.290;4.565674;-0.493939
2.300;4.591571;-0.462005
2.310;4.614769;-0.430946
2.320;4.636106;-0.401689
2.330;4.656558;-0.374992
2.340;4.676822;-0.351175
2.350;4.697035;-0.329927
2.360;4.716717;-0.310309
2.370;4.734963;-0.291006
2.380;4.750749;-0.270754
2.390;4.763229;-0.248756
2.400;4.771894;-0.224900
2.410;4.776593;-0.199708
2.420;4.777437;-0.174081
2.430;4.774667;-0.148990
2.440;4.768543;-0.125222
2.450;4.759292;-0.103248
2.460;4.747124;-0.083211
2.470;4.732305;-0.065025
2.480;4.715229;-0.048537
2.490;4.696479;-0.033682
2.500;4.676788;-0.020583
2.510;4.656910;-0.009533
2.520;4.637425;-0.000890
2.530;4.618590;0.005096
2.540;4.600334;0.008430
2.550;4.582389;0.009413
2.560;4.564480;0.008592
2.570;4.546475;0.006639
2.580;4.528447;0.004216
2.590;4.510629;0.001843
2.600;4.493320;-0.000238
2.610;4.476763;-0.002146
2.620;4.461049;-0.004360
2.630;4.446082;-0.007589
2.640;4.431655;-0.012548
2.650;4.417583;-0.019726
2.660;4.403814;-0.029228
2.670;4.390381;-0.040716
2.680;4.377224;-0.053450
2.690;4.364001;-0.066408
2.700;4.350031;-0.078430
2.710;4.334425;-0.088372
2.720;4.316328;-0.095222
2.730;4.295141;-0.098221
2.740;4.270623;-0.096979
2.750;4.242848;-0.091570
2.760;4.212090;-0.082540
2.770;4.178681;-0.070772
2.780;4.142874;-0.057221
2.790;4.104688;-0.042618
2.800;4.063776;-0.027275
2.810;4.019369;-0.011072
2.820;3.970365;0.006417
2.830;3.915548;0.025699
2.840;3.853872;0.047093
2.850;3.784735;0.070482
2.860;3.708225;0.095132
2.870;3.625314;0.119680
2.880;3.537955;0.142335
2.890;3.448990;0.161267
2.900;3.361802;0.175079
2.910;3.279710;0.183172
2.920;3.205261;0.185852
2.930;3.139686;0.184138
2.940;3.082771;0.179355
2.950;3.033232;0.172705
2.960;2.989408;0.164987
2.970;2.949975;0.156511
2.980;2.914420;0.147217
2.990;2.883134;0.136914
3.000;2.857158;0.125535
3.010;2.837711;0.113301
3.020;2.825693;0.100711
3.030;2.821314;0.088357
3.040;2.823967;0.076667
3.050;2.832347;0.065739
3.060;2.844754;0.055332
3.070;2.859411;0.045026
3.080;2.874703;0.034441
3.090;2.889264;0.023443
3.100;2.901977;0.012250
3.110;2.911939;0.001412
3.120;2.918469;-0.008329
3.130;2.921152;-0.016265
3.140;2.919881;-0.021932
3.150;2.914845;-0.025254
3.160;2.906469;-0.026572
3.170;2.895310;-0.026533
3.180;2.881948;-0.025866
3.190;2.866852;-0.025108
3.200;2.850273;-0.024396
3.210;2.832176;-0.023422
3.220;2.812261;-0.021540
3.230;2.790061;-0.017955
3.240;2.765067;-0.011918
3.250;2.736868;-0.002852
3.260;2.705292;0.009554
3.270;2.670545;0.025288
3.280;2.633291;0.043966
3.290;2.594632;0.064796
3.300;2.555933;0.086620
3.310;2.518535;0.108047
3.320;2.483435;0.127699
3.330;2.451054;0.144474
3.340;2.421194;0.157752
3.350;2.393214;0.167474
3.360;2.366351;0.174081
3.370;2.340053;0.178319
3.380;2.314206;0.180980
3.390;2.289189;0.182671
3.400;2.265781;0.183694
3.410;2.244946;0.184030
3.420;2.227558;0.183413
3.430;2.214145;0.181447
3.440;2.204733;0.177746
3.450;2.198842;0.172090
3.460;2.195627;0.164538
3.470;2.194114;0.155441
3.480;2.193457;0.145326
3.490;2.193122;0.134711
3.500;2.192950;0.123936
3.510;2.193091;0.113111
3.520;2.193861;0.102146
3.530;2.195572;0.090867
3.540;2.198405;0.079139
3.550;2.202365;0.066996
3.560;2.207302;0.054705
3.570;2.212938;0.042724
3.580;2.218883;0.031559
3.590;2.224646;0.021585
3.600;2.229679;0.012943
3.610;2.233478;0.005551
3.620;2.235650;-0.000791
3.630;2.235943;-0.006265
3.640;2.234207;-0.010954
3.650;2.230365;-0.014844
3.660;2.224437;-0.017920
3.670;2.216630;-0.020305
3.680;2.207425;-0.022361
3.690;2.197574;-0.024690
3.700;2.187995;-0.028034
3.710;2.179586;-0.033099
3.720;2.173083;-0.040379
3.730;2.168991;-0.050018
3.740;2.167617;-0.061758
3.750;2.169108;-0.075030
3.760;2.173475;-0.089166
3.770;2.180571;-0.103682
3.780;2.190087;-0.118494
3.790;2.201574;-0.133952
3.800;2.214514;-0.150672
3.810;2.228426;-0.169254
3.820;2.242980;-0.190026
3.830;2.258080;-0.212895
3.840;2.273861;-0.237358
3.850;2.290583;-0.262606
3.860;2.308454;-0.287673
3.870;2.327457;-0.311597
3.880;2.347260;-0.333571
3.890;2.367248;-0.353052
3.900;2.386651;-0.369820
3.910;2.404721;-0.383930
3.920;2.420883;-0.395622
3.930;2.434807;-0.405242
3.940;2.446379;-0.413223
3.950;2.455629;-0.420088
3.960;2.462655;-0.426400
3.970;2.467637;-0.432636
3.980;2.470909;-0.439057
3.990;2.473023;-0.445680
4.000;2.474728;-0.452389
4.010;2.476831;-0.459122
4.020;2.480011;-0.466001
4.030;2.484698;-0.473336
4.040;2.491067;-0.481472
4.050;2.499139;-0.490558
4.060;2.508907;-0.500344
4.070;2.520403;-0.510147
4.080;2.533706;-0.519026
4.090;2.548905;-0.526129
4.100;2.566084;-0.531010
4.110;2.585346;-0.533757
4.120;2.606807;-0.534869
4.130;2.630538;-0.534976
4.140;2.656453;-0.534602
4.150;2.684257;-0.534093
4.160;2.713492;-0.533690
4.170;2.743680;-0.533639
4.180;2.774474;-0.534241
4.190;2.805755;-0.535806
4.200;2.837615;-0.538554
4.210;2.870228;-0.542520
4.220;2.903654;-0.547521
4.230;2.937675;-0.553215
4.240;2.971718;-0.559225
4.250;3.004907;-0.565286
4.260;3.036204;-0.571370
4.270;3.064597;-0.577742
4.280;3.089274;-0.584963
4.290;3.109741;-0.593790
4.300;3.125841;-0.605009
4.310;3.137647;-0.619226
4.320;3.145283;-0.636694
4.330;3.148745;-0.657254
4.340;3.147833;-0.680431
4.350;3.142231;-0.705607
4.360;3.131711;-0.732207
4.370;3.116344;-0.759783
4.380;3.096601;-0.787985
4.390;3.073274;-0.816443
4.400;3.047237;-0.844674
4.410;3.019174;-0.872095
4.420;2.989352;-0.898221
4.430;2.957478;-0.922975
4.440;2.922651;-0.946985
4.450;2.883384;-0.971656
4.460;2.837776;-0.998867
4.470;2.783832;-1.030317
4.480;2.719939;-1.066732
4.490;2.645399;-1.107309
4.500;2.560850;-1.149676
4.510;2.468421;-1.190475
4.520;2.371460;-1.226374
4.530;2.273856;-1.255154
4.540;2.179125;-1.276487
4.550;2.089609;-1.292123
4.560;2.006110;-1.305457
4.570;1.928066;-1.320610
4.580;1.854157;-1.341310
4.590;1.783040;-1.369909
4.600;1.713942;-1.406828
4.610;1.646925;-1.450577
4.620;1.582842;-1.498272
4.630;1.523079;-1.546449
4.640;1.469207;-1.591890
4.650;1.422665;-1.632240
4.660;1.384520;-1.666291
4.670;1.355325;-1.693943
4.680;1.335086;-1.715940
4.690;1.323313;-1.733550
4.700;1.319105;-1.748232
4.710;1.321237;-1.761300
4.720;1.328219;-1.773608
4.730;1.338345;-1.785346
4.740;1.349754;-1.796084
4.750;1.360559;-1.805135
4.760;1.369036;-1.812041
4.770;1.373870;-1.816965
4.780;1.374366;-1.820780
4.790;1.370562;-1.824860
4.800;1.363177;-1.830697
4.810;1.353398;-1.839511
4.820;1.342571;-1.851945
4.830;1.331882;-1.867930
4.840;1.322168;-1.886763
4.850;1.313889;-1.907396
4.860;1.307243;-1.928847
4.870;1.302337;-1.950559
4.880;1.299296;-1.972527
4.890;1.298278;-1.995179
4.900;1.299407;-2.019095
4.910;1.302694;-2.044726
4.920;1.308004;-2.072201
4.930;1.315067;-2.101215
4.940;1.323518;-2.131041
4.950;1.332944;-2.160672
4.960;1.342938;-2.189104
4.970;1.353173;-2.215691
4.980;1.363451;-2.240423
4.990;1.373687;-2.263971
5.000;1.383829;-2.287483
5.010;1.393749;-2.312186
5.020;1.403173;-2.338956
5.030;1.411653;-2.368021
5.040;1.418613;-2.398929
5.050;1.423443;-2.430736
5.060;1.425613;-2.462306
5.070;1.424787;-2.492583
5.080;1.420932;-2.520739
5.090;1.414396;-2.546213
5.100;1.405972;-2.568677
5.110;1.396862;-2.587993
5.120;1.388545;-2.604178
5.130;1.382499;-2.617395
5.140;1.379895;-2.627947
5.150;1.381362;-2.636243
5.160;1.386937;-2.642696
5.170;1.396243;-2.647558
5.180;1.408781;-2.650784
5.190;1.424220;-2.652017
5.200;1.442529;-2.650714
5.210;1.463929;-2.646348
5.220;1.488721;-2.638569
5.230;1.517070;-2.627274
5.240;1.548813;-2.612614
5.250;1.583343;-2.594986
5.260;1.619624;-2.574980
5.270;1.656364;-2.553282
5.280;1.692302;-2.530504
5.290;1.726481;-2.507061
5.300;1.758383;-2.483141
5.310;1.787852;-2.458811
5.320;1.814872;-2.434166
5.330;1.839313;-2.409447
5.340;1.860793;-2.385055
5.350;1.878744;-2.361487
5.360;1.892651;-2.339250
5.370;1.902358;-2.318797
5.380;1.908252;-2.300537
5.390;1.911236;-2.284852
5.400;1.912500;-2.272103
5.410;1.913231;-2.262535
5.420;1.914405;-2.256137
5.430;1.916733;-2.252529
5.440;1.920719;-2.250949
5.450;1.926719;-2.250366
5.460;1.934944;-2.249630
5.470;1.945403;-2.247626
5.480;1.957855;-2.243385
5.490;1.971819;-2.236166
5.500;1.986667;-2.225497
5.510;2.001756;-2.211175
5.520;2.016581;-2.193227
5.530;2.030869;-2.171846
5.540;2.044584;-2.147340
5.550;2.057822;-2.120086
5.560;2.070646;-2.090506
5.570;2.082947;-2.059017
5.580;2.094397;-2.025951
5.590;2.104560;-1.991455
5.600;2.113079;-1.955445
5.610;2.119832;-1.917651
5.620;2.124927;-1.877708
5.630;2.128546;-1.835247
5.640;2.130736;-1.789957
5.650;2.131285;-1.741641
5.660;2.129764;-1.690307
5.670;2.125755;-1.636243
5.680;2.119157;-1.580035
5.690;2.110413;-1.522464
5.700;2.100489;-1.464312
5.710;2.090591;-1.406160
5.720;2.081762;-1.348215
5.730;2.074561;-1.290213
5.740;2.068969;-1.231421
5.750;2.064522;-1.170775
5.760;2.060569;-1.107126
5.770;2.056517;-1.039506
5.780;2.051988;-0.967309
5.790;2.046872;-0.890376
5.800;2.041313;-0.808991
5.810;2.035634;-0.723834
5.820;2.030228;-0.635859
5.830;2.025458;-0.546141
5.840;2.021609;-0.455716
5.850;2.018892;-0.365496
5.860;2.017470;-0.276281
5.870;2.017503;-0.188822
5.880;2.019195;-0.103905
5.890;2.022841;-0.022369
5.900;2.028834;0.054938
5.910;2.037607;0.127299
5.920;2.049498;0.194298
5.930;2.064598;0.255974
5.940;2.082660;0.312854
5.950;2.103150;0.365853
5.960;2.125419;0.416064
5.970;2.148867;0.464492
5.980;2.173011;0.511804
5.990;2.197435;0.558161
6.000;2.221703;0.603205
6.010;2.245313;0.646228
6.020;2.267723;0.686442
6.030;2.288417;0.723233
6.040;2.306967;0.756305
6.050;2.323061;0.785705
6.060;2.336509;0.811777
6.070;2.347219;0.835102
6.080;2.355165;0.856422
6.090;2.360344;0.876519
6.100;2.362730;0.896057
6.110;2.362252;0.915463
6.120;2.358793;0.934870
6.130;2.352246;0.954164
6.140;2.342607;0.973060
6.150;2.330072;0.991163
6.160;2.315109;1.007967
6.170;2.298447;1.022813
6.180;2.281009;1.034839
6.190;2.263822;1.042985
6.200;2.247931;1.046125
6.210;2.234315;1.043311
6.220;2.223786;1.034073
6.230;2.216889;1.018685
6.240;2.213843;0.998253
6.250;2.214606;0.974565
6.260;2.219058;0.949688
6.270;2.227246;0.925448
6.280;2.239523;0.902972
6.290;2.256528;0.882395
6.300;2.279001;0.862809
6.310;2.307565;0.842434
6.320;2.342549;0.818971
6.330;2.383896;0.790082
6.340;2.431159;0.753854
6.350;2.483525;0.709167
6.360;2.539837;0.655874
6.370;2.598586;0.594794
6.380;2.657943;0.527504
6.390;2.715913;0.455960
6.400;2.770618;0.382086
6.410;2.820621;0.307499
6.420;2.865143;0.233459
6.430;2.904047;0.161035
6.440;2.937600;0.091324
6.450;2.966107;0.025562
6.460;2.989636;-0.034964
6.470;3.007962;-0.089131
6.480;3.020756;-0.136189
6.490;3.027911;-0.175831
6.500;3.029774;-0.208077
6.510;3.027175;-0.233024
6.520;3.021207;-0.250607
6.530;3.012887;-0.260502
6.540;3.002869;-0.262268
6.550;2.991325;-0.255693
6.560;2.978026;-0.241165
6.570;2.962539;-0.219904
6.580;2.944475;-0.193882
6.590;2.923705;-0.165446
6.600;2.900504;-0.136758
6.610;2.875585;-0.109340
6.620;2.849975;-0.083921
6.630;2.824765;-0.060603
6.640;2.800798;-0.039200
6.650;2.778409;-0.019541
6.660;2.757320;-0.001654
6.670;2.736713;0.014178
6.680;2.715441;0.027435
6.690;2.692305;0.037458
6.700;2.666279;0.043624
6.710;2.636653;0.045581
6.720;2.603121;0.043469
6.730;2.565872;0.038045
6.740;2.525726;0.030687
6.750;2.484239;0.023244
6.760;2.443645;0.017730
6.770;2.406496;0.015884
6.780;2.375049;0.018743
6.790;2.350593;0.026401
6.800;2.333050;0.038071
6.810;2.321046;0.052424
6.820;2.312423;0.068031
6.830;2.304977;0.083697
6.840;2.297128;0.098552
6.850;2.288316;0.111927
6.860;2.279031;0.123134
6.870;2.270537;0.131350
6.880;2.264409;0.135667
6.890;2.262075;0.135277
6.900;2.264487;0.129666
6.910;2.271992;0.118761
6.920;2.284393;0.103000
6.930;2.301123;0.083349
6.940;2.321449;0.061236
6.950;2.344627;0.038386
6.960;2.369971;0.016514
6.970;2.396852;-0.003053
6.980;2.424646;-0.019694
6.990;2.452676;-0.033612
7.000;2.480187;-0.045680
7.010;2.506399;-0.057106
7.020;2.530630;-0.069059
7.030;2.552417;-0.082402
7.040;2.571562;-0.097572
7.050;2.588074;-0.114584
7.060;2.602051;-0.133142
7.070;2.613583;-0.152824
7.080;2.622718;-0.173300
7.090;2.629496;-0.194471
7.100;2.634021;-0.216479
7.110;2.636541;-0.239582
7.120;2.637501;-0.263989
7.130;2.637516;-0.289729
7.140;2.637267;-0.316574
7.150;2.637349;-0.344021
7.160;2.638147;-0.371350
7.170;2.639816;-0.397768
7.180;2.642388;-0.422647
7.190;2.645964;-0.445790
7.200;2.650894;-0.467596
7.210;2.657870;-0.489013
7.220;2.667869;-0.511257
7.230;2.681991;-0.535409
7.240;2.701244;-0.562061
7.250;2.726355;-0.591175
7.260;2.757650;-0.622181
7.270;2.795033;-0.654251
7.280;2.838022;-0.686568
7.290;2.885809;-0.718469
7.300;2.937299;-0.749373
7.310;2.991136;-0.778562
7.320;3.045773;-0.804965
7.330;3.099642;-0.827093
7.340;3.151412;-0.843251
7.350;3.200229;-0.852001
7.360;3.245795;-0.852728
7.370;3.288232;-0.846072
7.380;3.327805;-0.833987
7.390;3.364615;-0.819368
7.400;3.398370;-0.805333
7.410;3.428293;-0.794416
7.420;3.453222;-0.787975
7.430;3.471832;-0.786011
7.440;3.482934;-0.787422
7.450;3.485737;-0.790552
7.460;3.480000;-0.793776
7.470;3.466062;-0.795909
7.480;3.444728;-0.796324
7.490;3.417061;-0.794781
7.500;3.384173;-0.791164
7.510;3.347085;-0.785316
7.520;3.306683;-0.777110
7.530;3.263735;-0.766682
7.540;3.218904;-0.754608
7.550;3.172717;-0.741862
7.560;3.125501;-0.729520
7.570;3.077338;-0.718364
7.580;3.028108;-0.708577
7.590;2.977624;-0.699674
7.600;2.925787;-0.690677
7.610;2.872710;-0.680461
7.620;2.818737;-0.668126
7.630;2.764381;-0.653285
7.640;2.710220;-0.636165
7.650;2.656805;-0.617495
7.660;2.604605;-0.598209
7.670;2.553973;-0.579060
7.680;2.505143;-0.560292
7.690;2.458289;-0.541514
7.700;2.413658;-0.521859
7.710;2.371693;-0.500418
7.720;2.333068;-0.476739
7.730;2.298557;-0.451155
7.740;2.268787;-0.424790
7.750;2.243998;-0.399231
7.760;2.223961;-0.376020
7.770;2.208075;-0.356134
7.780;2.195597;-0.339638
7.790;2.185838;-0.325646
7.800;2.178259;-0.312610
7.810;2.172446;-0.298856
7.820;2.168021;-0.283170
7.830;2.164584;-0.265213
7.840;2.161706;-0.245641
7.850;2.158986;-0.225896
7.860;2.156093;-0.207770
7.870;2.152764;-0.192913
7.880;2.148751;-0.182456
7.890;2.143787;-0.176880
7.900;2.137576;-0.176103
7.910;2.129781;-0.179729
7.920;2.120009;-0.187303
7.930;2.107817;-0.198495
7.940;2.092778;-0.213119
7.950;2.074579;-0.230986
7.960;2.053099;-0.251695
7.970;2.028380;-0.274508
7.980;2.000513;-0.298444
7.990;1.969503;-0.322609
8.000;1.935197;-0.346604
8.010;1.897313;-0.370808
8.020;1.855531;-0.396352
8.030;1.809626;-0.424788
8.040;1.759603;-0.457569
8.050;1.705837;-0.495544
