Time[s];COPx[cm];COPy[cm]
0.010;-0.818312;-0.674474
0.020;-0.821717;-0.670139
0.030;-0.822740;-0.665680
0.040;-0.819711;-0.661112
0.050;-0.812058;-0.656556
0.060;-0.800420;-0.652222
0.070;-0.786385;-0.648350
0.080;-0.771972;-0.645156
0.090;-0.758994;-0.642774
0.100;-0.748512;-0.641240
0.110;-0.740559;-0.640516
0.120;-0.734236;-0.640525
0.130;-0.728153;-0.641187
0.140;-0.721028;-0.642433
0.150;-0.712181;-0.644232
0.160;-0.701751;-0.646593
0.170;-0.690587;-0.649513
0.180;-0.679911;-0.652833
0.190;-0.670945;-0.656084
0.200;-0.664651;-0.658481
0.210;-0.661625;-0.659142
0.220;-0.662130;-0.657464
0.230;-0.666148;-0.653448
0.240;-0.673419;-0.647760
0.250;-0.683443;-0.641485
0.260;-0.695490;-0.635691
0.270;-0.708658;-0.630971
0.280;-0.721978;-0.627174
0.290;-0.734559;-0.623444
0.300;-0.745734;-0.618567
0.310;-0.755154;-0.611527
0.320;-0.762800;-0.602023
0.330;-0.768903;-0.590726
0.340;-0.773809;-0.579174
0.350;-0.777825;-0.569332
0.360;-0.781116;-0.563023
0.370;-0.783674;-0.561392
0.380;-0.785391;-0.564556
0.390;-0.786169;-0.571526
0.400;-0.786021;-0.580450
0.410;-0.785065;-0.589104
0.420;-0.783454;-0.595494
0.430;-0.781279;-0.598353
0.440;-0.778547;-0.597415
0.450;-0.775285;-0.593424
0.460;-0.771698;-0.587921
0.470;-0.768255;-0.582853
0.480;-0.765603;-0.580100
0.490;-0.764351;-0.581027
0.500;-0.764830;-0.586238
0.510;-0.766962;-0.595592
0.520;-0.770271;-0.608468
0.530;-0.774042;-0.624134
0.540;-0.777560;-0.642039
0.550;-0.780347;-0.661968
0.560;-0.782291;-0.684014
0.570;-0.783573;-0.708452
0.580;-0.784413;-0.735535
0.590;-0.784729;-0.765281
0.600;-0.783906;-0.797305
0.610;-0.780787;-0.830766
0.620;-0.773929;-0.864465
0.630;-0.762024;-0.897032
0.640;-0.744352;-0.927156
0.650;-0.721116;-0.953819
0.660;-0.693518;-0.976533
0.670;-0.663568;-0.995554
0.680;-0.633673;-1.011967
0.690;-0.606166;-1.027518
0.700;-0.582914;-1.044174
0.710;-0.565062;-1.063517
0.720;-0.552904;-1.086218
0.730;-0.545869;-1.111827
0.740;-0.542600;-1.138947
0.750;-0.541145;-1.165737
0.760;-0.539290;-1.190526
0.770;-0.535003;-1.212338
0.780;-0.526910;-1.231156
0.790;-0.514645;-1.247836
0.800;-0.498951;-1.263739
0.810;-0.481496;-1.280223
0.820;-0.464454;-1.298170
0.830;-0.449995;-1.317669
0.840;-0.439820;-1.337968
0.850;-0.434883;-1.357695
0.860;-0.435303;-1.375256
0.870;-0.440431;-1.389256
0.880;-0.448995;-1.398838
0.890;-0.459330;-1.403894
0.900;-0.469687;-1.405097
0.910;-0.478585;-1.403756
0.920;-0.485120;-1.401466
0.930;-0.489097;-1.399702
0.940;-0.490916;-1.399493
0.950;-0.491252;-1.401333
0.960;-0.490675;-1.405306
0.970;-0.489382;-1.411291
0.980;-0.487190;-1.419084
0.990;-0.483737;-1.428382
1.000;-0.478770;-1.438676
1.010;-0.472371;-1.449168
1.020;-0.464992;-1.458822
1.030;-0.457313;-1.466591
1.040;-0.450026;-1.471745
1.050;-0.443654;-1.474144
1.060;-0.438465;-1.474318
1.070;-0.434472;-1.473276
1.080;-0.431470;-1.472122
1.090;-0.429052;-1.471686
1.100;-0.426620;-1.472306
1.110;-0.423399;-1.473885
1.120;-0.418481;-1.476141
1.130;-0.410939;-1.478890
1.140;-0.399968;-1.482179
1.150;-0.385028;-1.486195
1.160;-0.365970;-1.491036
1.170;-0.343142;-1.496548
1.180;-0.317478;-1.502329
1.190;-0.290492;-1.507884
1.200;-0.264095;-1.512794
1.210;-0.240248;-1.516786
1.220;-0.220558;-1.519699
1.230;-0.206011;-1.521360
1.240;-0.196905;-1.521486
1.250;-0.192948;-1.519654
1.260;-0.193426;-1.515405
1.270;-0.197346;-1.508482
1.280;-0.203557;-1.499096
1.290;-0.210886;-1.488088
1.300;-0.218293;-1.476827
1.310;-0.225053;-1.466855
1.320;-0.230891;-1.459443
1.330;-0.236045;-1.455270
1.340;-0.241201;-1.454350
1.350;-0.247290;-1.456164
1.360;-0.255213;-1.459895
1.370;-0.265590;-1.464645
1.380;-0.278621;-1.469579
1.390;-0.294079;-1.474008
1.400;-0.311395;-1.477461
1.410;-0.329770;-1.479791
1.420;-0.348267;-1.481286
1.430;-0.365877;-1.482703
1.440;-0.381550;-1.485172
1.450;-0.394250;-1.489938
1.460;-0.403065;-1.498046
1.470;-0.407424;-1.510081
1.480;-0.407322;-1.526055
1.490;-0.403463;-1.545509
1.500;-0.397184;-1.567728
1.510;-0.390144;-1.591960
1.520;-0.383865;-1.617528
1.530;-0.379294;-1.643815
1.540;-0.376556;-1.670189
1.550;-0.375009;-1.695946
1.560;-0.373583;-1.720351
1.570;-0.371237;-1.742790
1.580;-0.367347;-1.762959
1.590;-0.361868;-1.780949
1.600;-0.355262;-1.797178
1.610;-0.348271;-1.812168
1.620;-0.341665;-1.826297
1.630;-0.336054;-1.839634
1.640;-0.331764;-1.851937
1.650;-0.328792;-1.862792
1.660;-0.326846;-1.871838
1.670;-0.325432;-1.878993
1.680;-0.323984;-1.884625
1.690;-0.321990;-1.889582
1.700;-0.319126;-1.895035
1.710;-0.315419;-1.902187
1.720;-0.311373;-1.911920
1.730;-0.307949;-1.924508
1.740;-0.306334;-1.939475
1.750;-0.307564;-1.955645
1.760;-0.312170;-1.971398
1.770;-0.320037;-1.985093
1.780;-0.330565;-1.995534
1.790;-0.343055;-2.002311
1.800;-0.357110;-2.005904
1.810;-0.372825;-2.007519
1.820;-0.390644;-2.008694
1.830;-0.410988;-2.010734
1.840;-0.433871;-2.014148
1.850;-0.458709;-2.018322
1.860;-0.484381;-2.021654
1.870;-0.509492;-2.022168
1.880;-0.532713;-2.018385
1.890;-0.553077;-2.010049
1.900;-0.570164;-1.998350
1.910;-0.584132;-1.985537
1.920;-0.595653;-1.974113
1.930;-0.605771;-1.965974
1.940;-0.615733;-1.961863
1.950;-0.626784;-1.961281
1.960;-0.639909;-1.962850
1.970;-0.655566;-1.964913
1.980;-0.673502;-1.966100
1.990;-0.692756;-1.965647
2.000;-0.711870;-1.963413
2.010;-0.729289;-1.959672
2.020;-0.743780;-1.954865
2.030;-0.754751;-1.949405
2.040;-0.762343;-1.943615
2.050;-0.767288;-1.937788
2.060;-0.770594;-1.932264
2.070;-0.773201;-1.927420
2.080;-0.775740;-1.923518
2.090;-0.778490;-1.920466
2.100;-0.781487;-1.917665
2.110;-0.784721;-1.914074
2.120;-0.788295;-1.908496
2.130;-0.792491;-1.899966
2.140;-0.797719;-1.888099
2.150;-0.804387;-1.873271
2.160;-0.812755;-1.856631
2.170;-0.822852;-1.839889
2.180;-0.834469;-1.824887
2.190;-0.847252;-1.813039
2.200;-0.860878;-1.804846
2.210;-0.875269;-1.799756
2.220;-0.890709;-1.796464
2.230;-0.907807;-1.793523
2.240;-0.927254;-1.789971
2.250;-0.949491;-1.785666
2.260;-0.974392;-1.781230
2.270;-1.001119;-1.777702
2.280;-1.028219;-1.776074
2.290;-1.053963;-1.776887
2.300;-1.076793;-1.779988
2.310;-1.095714;-1.784542
2.320;-1.110490;-1.789304
2.330;-1.121592;-1.793067
2.340;-1.129904;-1.795123
2.350;-1.136282;-1.795480
2.360;-1.141134;-1.794695
2.370;-1.144208;-1.793406
2.380;-1.144704;-1.791807
2.390;-1.141620;-1.789391
2.400;-1.134169;-1.785077
2.410;-1.122088;-1.777632
2.420;-1.105751;-1.766148
2.430;-1.086089;-1.750356
2.440;-1.064359;-1.730721
2.450;-1.041839;-1.708319
2.460;-1.019581;-1.684624
2.470;-0.998313;-1.661237
2.480;-0.978470;-1.639622
2.490;-0.960256;-1.620827
2.500;-0.943672;-1.605231
2.510;-0.928506;-1.592382
2.520;-0.914370;-1.581030
2.530;-0.900823;-1.569413
2.540;-0.887541;-1.555726
2.550;-0.874457;-1.538623
2.560;-0.861792;-1.517619
2.570;-0.849995;-1.493239
2.580;-0.839600;-1.466917
2.590;-0.831079;-1.440654
2.600;-0.824700;-1.416519
2.610;-0.820431;-1.396114
2.620;-0.817886;-1.380177
2.630;-0.816347;-1.368437
2.640;-0.814895;-1.359776
2.650;-0.812630;-1.352621
2.660;-0.808923;-1.345410
2.670;-0.803628;-1.336967
2.680;-0.797175;-1.326689
2.690;-0.790512;-1.314539
2.700;-0.784880;-1.300899
2.710;-0.781465;-1.286352
2.720;-0.781027;-1.271461
2.730;-0.783626;-1.256601
2.740;-0.788546;-1.241875
2.750;-0.794462;-1.227158
2.760;-0.799815;-1.212258
2.770;-0.803305;-1.197120
2.780;-0.804334;-1.181966
2.790;-0.803242;-1.167275
2.800;-0.801209;-1.153595
2.810;-0.799857;-1.141306
2.820;-0.800663;-1.130444
2.830;-0.804424;-1.120672
2.840;-0.810998;-1.111402
2.850;-0.819431;-1.102022
2.860;-0.828400;-1.092121
2.870;-0.836728;-1.081646
2.880;-0.843741;-1.070927
2.890;-0.849347;-1.060570
2.900;-0.853828;-1.051270
2.910;-0.857521;-1.043579
2.920;-0.860544;-1.037769
2.930;-0.862684;-1.033840
2.940;-0.863446;-1.031677
2.950;-0.862210;-1.031231
2.960;-0.858436;-1.032592
2.970;-0.851868;-1.035931
2.980;-0.842689;-1.041378
2.990;-0.831581;-1.048958
3.000;-0.819667;-1.058578
3.010;-0.808334;-1.070029
3.020;-0.798943;-1.082935
3.030;-0.792505;-1.096722
3.040;-0.789394;-1.110617
3.050;-0.789187;-1.123739
3.060;-0.790705;-1.135242
3.070;-0.792254;-1.144453
3.080;-0.792018;-1.150982
3.090;-0.788499;-1.154761
3.100;-0.780853;-1.156039
3.110;-0.769065;-1.155316
3.120;-0.753906;-1.153237
3.130;-0.736706;-1.150448
3.140;-0.719033;-1.147465
3.150;-0.702364;-1.144586
3.160;-0.687853;-1.141886
3.170;-0.676195;-1.139263
3.180;-0.667567;-1.136483
3.190;-0.661647;-1.133188
3.200;-0.657714;-1.128887
3.210;-0.654876;-1.122988
3.220;-0.652360;-1.114898
3.230;-0.649778;-1.104173
3.240;-0.647270;-1.090656
3.250;-0.645466;-1.074588
3.260;-0.645273;-1.056649
3.270;-0.647546;-1.037942
3.280;-0.652710;-1.019863
3.290;-0.660477;-1.003881
3.300;-0.669761;-0.991284
3.310;-0.678882;-0.982960
3.320;-0.686027;-0.979257
3.330;-0.689791;-0.979929
3.340;-0.689588;-0.984180
3.350;-0.685757;-0.990806
3.360;-0.679380;-0.998437
3.370;-0.671909;-1.005819
3.380;-0.664780;-1.012057
3.390;-0.659111;-1.016783
3.400;-0.655570;-1.020184
3.410;-0.654359;-1.022867
3.420;-0.655287;-1.025600
3.430;-0.657875;-1.028975
3.440;-0.661468;-1.033166
3.450;-0.665334;-1.037820
3.460;-0.668756;-1.042142
3.470;-0.671125;-1.045095
3.480;-0.672021;-1.045682
3.490;-0.671275;-1.043235
3.500;-0.668977;-1.037645
3.510;-0.665447;-1.029474
3.520;-0.661162;-1.019858
3.530;-0.656651;-1.010240
3.540;-0.652365;-1.002000
3.550;-0.648549;-0.996135
3.560;-0.645182;-0.993111
3.570;-0.642008;-0.992902
3.580;-0.638664;-0.995111
3.590;-0.634828;-0.999107
3.600;-0.630326;-1.004141
3.610;-0.625168;-1.009469
3.620;-0.619543;-1.014506
3.630;-0.613790;-1.018997
3.640;-0.608329;-1.023135
3.650;-0.603545;-1.027551
3.660;-0.599665;-1.033168
3.670;-0.596697;-1.040943
3.680;-0.594471;-1.051579
3.690;-0.592787;-1.065353
3.700;-0.591582;-1.082128
3.710;-0.591057;-1.101484
3.720;-0.591654;-1.122874
3.730;-0.593917;-1.145675
3.740;-0.598259;-1.169173
3.750;-0.604764;-1.192522
3.760;-0.613108;-1.214772
3.770;-0.622659;-1.234985
3.780;-0.632721;-1.252463
3.790;-0.642782;-1.266991
3.800;-0.652609;-1.278986
3.810;-0.662144;-1.289392
3.820;-0.671306;-1.299299
3.830;-0.679856;-1.309438
3.840;-0.687403;-1.319826
3.850;-0.693548;-1.329761
3.860;-0.698028;-1.338150
3.870;-0.700790;-1.343950
3.880;-0.701912;-1.346540
3.890;-0.701469;-1.345893
3.900;-0.699432;-1.342582
3.910;-0.695719;-1.337649
3.920;-0.690361;-1.332364
3.930;-0.683681;-1.327879
3.940;-0.676323;-1.324847
3.950;-0.669107;-1.323176
3.960;-0.662783;-1.322074
3.970;-0.657809;-1.320396
3.980;-0.654258;-1.317132
3.990;-0.651852;-1.311770
4.000;-0.650115;-1.304379
4.010;-0.648561;-1.295443
4.020;-0.646857;-1.285648
4.030;-0.644901;-1.275747
4.040;-0.642773;-1.266513
4.050;-0.640610;-1.258693
4.060;-0.638497;-1.252913
4.070;-0.636466;-1.249568
4.080;-0.634632;-1.248741
4.090;-0.633334;-1.250216
4.100;-0.633190;-1.253567
4.110;-0.634954;-1.258311
4.120;-0.639221;-1.264063
4.130;-0.646108;-1.270624
4.140;-0.655042;-1.277994
4.150;-0.664787;-1.286336
4.160;-0.673683;-1.295897
4.170;-0.680023;-1.306885
4.180;-0.682446;-1.319315
4.190;-0.680229;-1.332888
4.200;-0.673420;-1.347007
4.210;-0.662814;-1.360911
4.220;-0.649782;-1.373875
4.230;-0.636048;-1.385343
4.240;-0.623416;-1.394994
4.250;-0.613470;-1.402747
4.260;-0.607275;-1.408761
4.270;-0.605142;-1.413431
4.280;-0.606560;-1.417328
4.290;-0.610383;-1.421091
4.300;-0.615227;-1.425243
4.310;-0.619955;-1.430017
4.320;-0.624034;-1.435207
4.330;-0.627682;-1.440140
4.340;-0.631730;-1.443822
4.350;-0.637292;-1.445239
4.360;-0.645363;-1.443694
4.370;-0.656498;-1.439051
4.380;-0.670707;-1.431816
4.390;-0.687568;-1.423023
4.400;-0.706461;-1.413951
4.410;-0.726776;-1.405783
4.420;-0.748009;-1.399315
4.430;-0.769748;-1.394848
4.440;-0.791603;-1.392238
4.450;-0.813126;-1.391053
4.460;-0.833782;-1.390753
4.470;-0.852964;-1.390869
4.480;-0.870061;-1.391158
4.490;-0.884537;-1.391710
4.500;-0.896018;-1.392926
4.510;-0.904371;-1.395311
4.520;-0.909780;-1.399134
4.530;-0.912772;-1.404167
4.540;-0.914150;-1.409692
4.550;-0.914860;-1.414781
4.560;-0.915828;-1.418658
4.570;-0.917834;-1.420960
4.580;-0.921434;-1.421798
4.590;-0.926912;-1.421675
4.600;-0.934267;-1.421340
4.610;-0.943222;-1.421594
4.620;-0.953275;-1.423091
4.630;-0.963772;-1.426152
4.640;-0.973986;-1.430687
4.650;-0.983193;-1.436251
4.660;-0.990750;-1.442221
4.670;-0.996196;-1.447971
4.680;-0.999370;-1.452936
4.690;-1.000483;-1.456572
4.700;-1.000074;-1.458303
4.710;-0.998841;-1.457576
4.720;-0.997391;-1.454076
4.730;-0.996028;-1.447947
4.740;-0.994684;-1.439839
4.750;-0.992999;-1.430705
4.760;-0.990490;-1.421464
4.770;-0.986737;-1.412742
4.780;-0.981512;-1.404807
4.790;-0.974862;-1.397681
4.800;-0.967150;-1.391252
4.810;-0.959104;-1.385289
4.820;-0.951819;-1.379347
4.830;-0.946641;-1.372717
4.840;-0.944857;-1.364529
4.850;-0.947251;-1.354038
4.860;-0.953697;-1.340942
4.870;-0.962995;-1.325592
4.880;-0.973086;-1.308989
4.890;-0.981614;-1.292544
4.900;-0.986638;-1.277692
4.910;-0.987216;-1.265488
4.920;-0.983669;-1.256325
4.930;-0.977449;-1.249872
4.940;-0.970711;-1.245233
4.950;-0.965744;-1.241309
4.960;-0.964401;-1.237209
4.970;-0.967698;-1.232556
4.980;-0.975665;-1.227553
4.990;-0.987478;-1.222814
5.000;-1.001805;-1.219100
5.010;-1.017228;-1.217100
5.020;-1.032626;-1.217317
5.030;-1.047412;-1.220013
5.040;-1.061591;-1.225160
5.050;-1.075642;-1.232417
5.060;-1.090263;-1.241166
5.070;-1.106056;-1.250614
5.080;-1.123218;-1.259924
5.090;-1.141368;-1.268315
5.100;-1.159572;-1.275147
5.110;-1.176585;-1.280054
5.120;-1.191196;-1.283114
5.130;-1.202549;-1.284967
5.140;-1.210321;-1.286745
5.150;-1.214724;-1.289746
5.160;-1.216360;-1.294970
5.170;-1.216013;-1.302691
5.180;-1.214437;-1.312219
5.190;-1.212192;-1.321962
5.200;-1.209543;-1.329801
5.210;-1.206413;-1.333732
5.220;-1.202429;-1.332585
5.230;-1.197067;-1.326503
5.240;-1.189886;-1.316934
5.250;-1.180766;-1.306082
5.260;-1.170068;-1.296068
5.270;-1.158628;-1.288204
5.280;-1.147577;-1.282706
5.290;-1.138068;-1.278912
5.300;-1.130986;-1.275812
5.310;-1.126786;-1.272590
5.320;-1.125452;-1.268908
5.330;-1.126517;-1.264903
5.340;-1.129083;-1.261005
5.350;-1.131831;-1.257748
5.360;-1.133157;-1.255678
5.370;-1.131467;-1.255305
5.380;-1.125581;-1.257032
5.390;-1.115096;-1.261003
5.400;-1.100549;-1.266932
5.410;-1.083331;-1.274020
5.420;-1.065357;-1.281042
5.430;-1.048615;-1.286654
5.440;-1.034729;-1.289807
5.450;-1.024652;-1.290091
5.460;-1.018543;-1.287813
5.470;-1.015830;-1.283762
5.480;-1.015429;-1.278757
5.490;-1.016042;-1.273264
5.500;-1.016453;-1.267283
5.510;-1.015752;-1.260558
5.520;-1.013450;-1.252931
5.530;-1.009502;-1.244613
5.540;-1.004260;-1.236198
5.550;-0.998372;-1.228434
5.560;-0.992649;-1.221885
5.570;-0.987912;-1.216680
5.580;-0.984916;-1.212457
5.590;-0.984330;-1.208508
5.600;-0.986753;-1.204012
5.610;-0.992651;-1.198265
5.620;-1.002186;-1.190828
5.630;-1.014998;-1.181592
5.640;-1.030095;-1.170786
5.650;-1.045967;-1.158924
5.660;-1.060949;-1.146718
5.670;-1.073714;-1.134953
5.680;-1.083720;-1.124372
5.690;-1.091450;-1.115572
5.700;-1.098289;-1.108904
5.710;-1.106079;-1.104393
5.720;-1.116482;-1.101699
5.730;-1.130426;-1.100170
5.740;-1.147868;-1.098999
5.750;-1.167935;-1.097445
5.760;-1.189309;-1.095060
5.770;-1.210707;-1.091826
5.780;-1.231265;-1.088129
5.790;-1.250770;-1.084558
5.800;-1.269660;-1.081617
5.810;-1.288874;-1.079516
5.820;-1.309575;-1.078111
5.830;-1.332843;-1.077011
5.840;-1.359381;-1.075741
5.850;-1.389316;-1.073889
5.860;-1.422150;-1.071190
5.870;-1.456924;-1.067556
5.880;-1.492579;-1.063082
5.890;-1.528408;-1.058075
5.900;-1.564451;-1.053042
5.910;-1.601639;-1.048603
5.920;-1.641619;-1.045339
5.930;-1.686264;-1.043631
5.940;-1.736987;-1.043557
5.950;-1.794076;-1.044867
5.960;-1.856269;-1.047021
5.970;-1.920769;-1.049281
5.980;-1.983735;-1.050913
5.990;-2.041110;-1.051456
6.000;-2.089536;-1.050932
6.010;-2.127053;-1.049843
6.020;-2.153420;-1.048894
6.030;-2.169975;-1.048587
6.040;-2.179125;-1.048876
6.050;-2.183625;-1.049064
6.060;-2.185876;-1.047984
6.070;-2.187417;-1.044449
6.080;-2.188731;-1.037792
6.090;-2.189339;-1.028263
6.100;-2.188138;-1.017063
6.110;-2.183850;-1.005960
6.120;-2.175489;-0.996643
6.130;-2.162709;-0.990099
6.140;-2.145933;-0.986285
6.150;-2.126263;-0.984223
6.160;-2.105210;-0.982444
6.170;-2.084348;-0.979568
6.180;-2.064959;-0.974796
6.190;-2.047741;-0.968139
6.200;-2.032689;-0.960340
6.210;-2.019185;-0.952533
6.220;-2.006303;-0.945748
6.230;-1.993162;-0.940443
6.240;-1.979209;-0.936289
6.250;-1.964345;-0.932347
6.260;-1.948917;-0.927560
6.270;-1.933608;-0.921300
6.280;-1.919265;-0.913682
6.290;-1.906671;-0.905515
6.300;-1.896306;-0.897955
6.310;-1.888174;-0.892056
6.320;-1.881781;-0.888369
6.330;-1.876316;-0.886739
6.340;-1.870936;-0.886342
6.350;-1.865041;-0.885948
6.360;-1.858410;-0.884351
6.370;-1.851184;-0.880794
6.380;-1.843736;-0.875285
6.390;-1.836499;-0.868664
6.400;-1.829822;-0.862354
6.410;-1.823897;-0.857856
6.420;-1.818730;-0.856166
6.430;-1.814125;-0.857387
6.440;-1.809665;-0.860706
6.450;-1.804733;-0.864712
6.460;-1.798641;-0.867863
6.470;-1.790869;-0.868912
6.480;-1.781331;-0.867167
6.490;-1.770539;-0.862584
6.500;-1.759538;-0.855722
6.510;-1.749595;-0.847580
6.520;-1.741782;-0.839335
6.530;-1.736599;-0.832028
6.540;-1.733807;-0.826307
6.550;-1.732514;-0.822336
6.560;-1.731484;-0.819907
6.570;-1.729569;-0.818646
6.580;-1.726098;-0.818212
6.590;-1.721090;-0.818365
6.600;-1.715247;-0.818927
6.610;-1.709780;-0.819736
6.620;-1.706157;-0.820658
6.630;-1.705782;-0.821656
6.640;-1.709653;-0.822858
6.650;-1.718059;-0.824525
6.660;-1.730418;-0.826904
6.670;-1.745359;-0.830040
6.680;-1.761003;-0.833684
6.690;-1.775368;-0.837356
6.700;-1.786743;-0.840549
6.710;-1.793947;-0.842918
6.720;-1.796462;-0.844384
6.730;-1.794478;-0.845121
6.740;-1.788877;-0.845470
6.750;-1.781127;-0.845864
6.760;-1.773028;-0.846768
6.770;-1.766304;-0.848621
6.780;-1.762174;-0.851746
6.790;-1.761089;-0.856235
6.800;-1.762749;-0.861904
6.810;-1.766379;-0.868389
6.820;-1.771092;-0.875369
6.830;-1.776159;-0.882759
6.840;-1.781110;-0.890730
6.850;-1.785699;-0.899505
6.860;-1.789821;-0.909073
6.870;-1.793476;-0.919008
6.880;-1.796788;-0.928532
6.890;-1.800038;-0.936779
6.900;-1.803634;-0.943107
6.910;-1.808000;-0.947295
6.920;-1.813422;-0.949567
6.930;-1.819932;-0.950500
6.940;-1.827301;-0.950880
6.950;-1.835113;-0.951543
6.960;-1.842845;-0.953201
6.970;-1.849896;-0.956294
6.980;-1.855575;-0.960888
6.990;-1.859121;-0.966674
7.000;-1.859818;-0.973103
7.010;-1.857177;-0.979601
7.020;-1.851111;-0.985783
7.030;-1.841997;-0.991562
7.040;-1.830569;-0.997109
7.050;-1.817712;-1.002692
7.060;-1.804276;-1.008483
7.070;-1.790996;-1.014414
7.080;-1.778513;-1.020157
7.090;-1.767416;-1.025239
7.100;-1.758226;-1.029253
7.110;-1.751308;-1.032057
7.120;-1.746738;-1.033854
7.130;-1.744182;-1.035153
7.140;-1.742860;-1.036638
7.150;-1.741654;-1.039028
7.160;-1.739343;-1.042941
7.170;-1.734912;-1.048773
7.180;-1.727819;-1.056557
7.190;-1.718110;-1.065854
7.200;-1.706356;-1.075701
7.210;-1.693455;-1.084691
7.220;-1.680388;-1.091218
7.230;-1.668051;-1.093862
7.240;-1.657149;-1.091792
7.250;-1.648149;-1.085021
7.260;-1.641241;-1.074381
7.270;-1.636311;-1.061246
7.280;-1.632943;-1.047128
7.290;-1.630507;-1.033332
7.300;-1.628305;-1.020799
7.310;-1.625772;-1.010117
7.320;-1.622642;-1.001607
7.330;-1.619045;-0.995341
7.340;-1.615507;-0.991089
7.350;-1.612853;-0.988281
7.360;-1.612041;-0.986068
7.370;-1.613974;-0.983515
7.380;-1.619310;-0.979837
7.390;-1.628320;-0.974619
7.400;-1.640840;-0.967953
7.410;-1.656321;-0.960435
7.420;-1.673959;-0.953033
7.430;-1.692833;-0.946838
7.440;-1.712019;-0.942790
7.450;-1.730686;-0.941480
7.460;-1.748210;-0.943074
7.470;-1.764277;-0.947373
7.480;-1.778939;-0.953971
7.490;-1.792577;-0.962414
7.500;-1.805728;-0.972295
7.510;-1.818815;-0.983240
7.520;-1.831870;-0.994837
7.530;-1.844406;-1.006575
7.540;-1.855517;-1.017865
7.550;-1.864203;-1.028142
7.560;-1.869751;-1.037011
7.570;-1.872040;-1.044327
7.580;-1.871623;-1.050142
7.590;-1.869599;-1.054551
7.600;-1.867291;-1.057575
7.610;-1.865887;-1.059193
7.620;-1.866146;-1.059512
7.630;-1.868288;-1.058942
7.640;-1.872045;-1.058237
7.650;-1.876820;-1.058339
7.660;-1.881854;-1.060058
7.670;-1.886378;-1.063722
7.680;-1.889740;-1.068972
