Time[s];COPx[cm];COPy[cm]
0.010;-4.927760;-0.487254
0.020;-4.928545;-0.480723
0.030;-4.929517;-0.473836
0.040;-4.930896;-0.466317
0.050;-4.933004;-0.458043
0.060;-4.936186;-0.449056
0.070;-4.940686;-0.439515
0.080;-4.946552;-0.429608
0.090;-4.953624;-0.419479
0.100;-4.961591;-0.409201
0.110;-4.970087;-0.398797
0.120;-4.978759;-0.388291
0.130;-4.987333;-0.377751
0.140;-4.995639;-0.367331
0.150;-5.003636;-0.357275
0.160;-5.011413;-0.347880
0.170;-5.019188;-0.339405
0.180;-5.027268;-0.331974
0.190;-5.035960;-0.325521
0.200;-5.045436;-0.319797
0.210;-5.055593;-0.314462
0.220;-5.065992;-0.309215
0.230;-5.075952;-0.303928
0.240;-5.084746;-0.298705
0.250;-5.091816;-0.293838
0.260;-5.096904;-0.289712
0.270;-5.100080;-0.286699
0.280;-5.101685;-0.285086
0.290;-5.102247;-0.285020
0.300;-5.102363;-0.286451
0.310;-5.102581;-0.289115
0.320;-5.103274;-0.292587
0.330;-5.104538;-0.296422
0.340;-5.106144;-0.300310
0.350;-5.107587;-0.304189
0.360;-5.108226;-0.308241
0.370;-5.107486;-0.312790
0.380;-5.105042;-0.318143
0.390;-5.100926;-0.324435
0.400;-5.095519;-0.331562
0.410;-5.089452;-0.339222
0.420;-5.083464;-0.347061
0.430;-5.078256;-0.354842
0.440;-5.074355;-0.362564
0.450;-5.072002;-0.370442
0.460;-5.071093;-0.378786
0.470;-5.071207;-0.387812
0.480;-5.071740;-0.397496
0.490;-5.072085;-0.407533
0.500;-5.071828;-0.417412
0.510;-5.070869;-0.426610
0.520;-5.069451;-0.434816
0.530;-5.068075;-0.442062
0.540;-5.067290;-0.448692
0.550;-5.067459;-0.455194
0.560;-5.068590;-0.461970
0.570;-5.070343;-0.469194
0.580;-5.072214;-0.476765
0.590;-5.073811;-0.484395
0.600;-5.075085;-0.491781
0.610;-5.076369;-0.498794
0.620;-5.078205;-0.505584
0.630;-5.081037;-0.512536
0.640;-5.084953;-0.520070
0.650;-5.089583;-0.528414
0.660;-5.094209;-0.537449
0.670;-5.098022;-0.546729
0.680;-5.100409;-0.555636
0.690;-5.101167;-0.563605
0.700;-5.100568;-0.570300
0.710;-5.099249;-0.575682
0.720;-5.097972;-0.579946
0.730;-5.097341;-0.583406
0.740;-5.097597;-0.586395
0.750;-5.098579;-0.589218
0.760;-5.099839;-0.592125
0.770;-5.100871;-0.595270
0.780;-5.101319;-0.598676
0.790;-5.101097;-0.602211
0.800;-5.100375;-0.605591
0.810;-5.099458;-0.608420
0.820;-5.098618;-0.610298
0.830;-5.097969;-0.610985
0.840;-5.097455;-0.610571
0.850;-5.096930;-0.609532
0.860;-5.096282;-0.608611
0.870;-5.095514;-0.608569
0.880;-5.094697;-0.609917
0.890;-5.093861;-0.612762
0.900;-5.092904;-0.616826
0.910;-5.091622;-0.621610
0.920;-5.089849;-0.626588
0.930;-5.087584;-0.631342
0.940;-5.085018;-0.635609
0.950;-5.082408;-0.639269
0.960;-5.079904;-0.642343
0.970;-5.077428;-0.644997
0.980;-5.074668;-0.647519
0.990;-5.071192;-0.650254
1.000;-5.066607;-0.653516
1.010;-5.060697;-0.657547
1.020;-5.053496;-0.662526
1.030;-5.045244;-0.668593
1.040;-5.036252;-0.675843
1.050;-5.026734;-0.684284
1.060;-5.016690;-0.693801
1.070;-5.005898;-0.704146
1.080;-4.994006;-0.714962
1.090;-4.980684;-0.725842
1.100;-4.965754;-0.736433
1.110;-4.949264;-0.746552
1.120;-4.931505;-0.756242
1.130;-4.912968;-0.765739
1.140;-4.894274;-0.775348
1.150;-4.876086;-0.785279
1.160;-4.859020;-0.795531
1.170;-4.843582;-0.805842
1.180;-4.830110;-0.815751
1.190;-4.818734;-0.824765
1.200;-4.809344;-0.832605
1.210;-4.801636;-0.839438
1.220;-4.795195;-0.845967
1.230;-4.789608;-0.853307
1.240;-4.784531;-0.862648
1.250;-4.779718;-0.874864
1.260;-4.775022;-0.890248
1.270;-4.770377;-0.908472
1.280;-4.765795;-0.928733
1.290;-4.761355;-0.949945
1.300;-4.757189;-0.970894
1.310;-4.753459;-0.990384
1.320;-4.750317;-1.007411
1.330;-4.747886;-1.021343
1.340;-4.746237;-1.032040
1.350;-4.745356;-1.039814
1.360;-4.745113;-1.045275
1.370;-4.745262;-1.049106
1.380;-4.745520;-1.051870
1.390;-4.745699;-1.053888
1.400;-4.745827;-1.055198
1.410;-4.746179;-1.055586
1.420;-4.747213;-1.054673
1.430;-4.749435;-1.052011
1.440;-4.753269;-1.047170
1.450;-4.758955;-1.039846
1.460;-4.766511;-1.030003
1.470;-4.775737;-1.017999
1.480;-4.786268;-1.004590
1.490;-4.797637;-0.990744
1.500;-4.809353;-0.977327
1.510;-4.820993;-0.964819
1.520;-4.832291;-0.953204
1.530;-4.843181;-0.942087
1.540;-4.853776;-0.930958
1.550;-4.864271;-0.919467
1.560;-4.874828;-0.907559
1.570;-4.885500;-0.895429
1.580;-4.896241;-0.883340
1.590;-4.906989;-0.871440
1.600;-4.917752;-0.859699
1.610;-4.928640;-0.847977
1.620;-4.939826;-0.836160
1.630;-4.951478;-0.824286
1.640;-4.963688;-0.812606
1.650;-4.976415;-0.801559
1.660;-4.989457;-0.791673
1.670;-5.002465;-0.783415
1.680;-5.015006;-0.777031
1.690;-5.026660;-0.772445
1.700;-5.037102;-0.769269
1.710;-5.046172;-0.766929
1.720;-5.053904;-0.764815
1.730;-5.060535;-0.762423
1.740;-5.066477;-0.759432
1.750;-5.072239;-0.755760
1.760;-5.078339;-0.751583
1.770;-5.085228;-0.747308
1.780;-5.093267;-0.743467
1.790;-5.102747;-0.740563
1.800;-5.113907;-0.738926
1.810;-5.126935;-0.738615
1.820;-5.141927;-0.739448
1.830;-5.158831;-0.741130
1.840;-5.177381;-0.743448
1.850;-5.197090;-0.746398
1.860;-5.217310;-0.750169
1.870;-5.237372;-0.754963
1.880;-5.256732;-0.760750
1.890;-5.275054;-0.767110
1.900;-5.292205;-0.773274
1.910;-5.308171;-0.778362
1.920;-5.322956;-0.781716
1.930;-5.336495;-0.783153
1.940;-5.348640;-0.783019
1.950;-5.359218;-0.782036
1.960;-5.368132;-0.781015
1.970;-5.375440;-0.780550
1.980;-5.381368;-0.780791
1.990;-5.386270;-0.781391
2.000;-5.390552;-0.781651
2.010;-5.394593;-0.780835
2.020;-5.398653;-0.778495
2.030;-5.402797;-0.774661
2.040;-5.406880;-0.769817
2.050;-5.410624;-0.764674
2.060;-5.413770;-0.759879
2.070;-5.416237;-0.755773
2.080;-5.418198;-0.752305
2.090;-5.420020;-0.749118
2.100;-5.422070;-0.745745
2.110;-5.424497;-0.741804
2.120;-5.427104;-0.737116
2.130;-5.429395;-0.731713
2.140;-5.430739;-0.725783
2.150;-5.430591;-0.719593
2.160;-5.428673;-0.713454
2.170;-5.425046;-0.707699
2.180;-5.420058;-0.702670
2.190;-5.414188;-0.698638
2.200;-5.407851;-0.695662
2.210;-5.401258;-0.693472
2.220;-5.394375;-0.691446
2.230;-5.386977;-0.688774
2.240;-5.378736;-0.684727
2.250;-5.369327;-0.678926
2.260;-5.358498;-0.671473
2.270;-5.346111;-0.662858
2.280;-5.332137;-0.653710
2.290;-5.316590;-0.644503
2.300;-5.299451;-0.635348
2.310;-5.280644;-0.625965
2.320;-5.260069;-0.615800
2.330;-5.237681;-0.604242
2.340;-5.213552;-0.590850
2.350;-5.187909;-0.575526
2.360;-5.161145;-0.558598
2.370;-5.133818;-0.540794
2.380;-5.106621;-0.523111
2.390;-5.080309;-0.506631
2.400;-5.055579;-0.492299
2.410;-5.032935;-0.480727
2.420;-5.012590;-0.472064
2.430;-4.994457;-0.465963
2.440;-4.978194;-0.461661
2.450;-4.963288;-0.458137
2.460;-4.949103;-0.454362
2.470;-4.934920;-0.449568
2.480;-4.919960;-0.443463
2.490;-4.903462;-0.436333
2.500;-4.884810;-0.428960
2.510;-4.863716;-0.422408
2.520;-4.840388;-0.417689
2.530;-4.815597;-0.415439
2.540;-4.790571;-0.415679
2.550;-4.766730;-0.417779
2.560;-4.745344;-0.420648
2.570;-4.727228;-0.423119
2.580;-4.712575;-0.424363
2.590;-4.700994;-0.424164
2.600;-4.691733;-0.422906
2.610;-4.684032;-0.421248
2.620;-4.677461;-0.419656
2.630;-4.672137;-0.418013
2.640;-4.668699;-0.415535
2.650;-4.668058;-0.411061
2.660;-4.670997;-0.403586
2.670;-4.677808;-0.392749
2.680;-4.688097;-0.379042
2.690;-4.700831;-0.363654
2.700;-4.714615;-0.348086
2.710;-4.728113;-0.333696
2.720;-4.740459;-0.321364
2.730;-4.751503;-0.311357
2.740;-4.761763;-0.303435
2.750;-4.772133;-0.297123
2.760;-4.783479;-0.292032
2.770;-4.796323;-0.288089
2.780;-4.810760;-0.285584
2.790;-4.826579;-0.285003
2.800;-4.843470;-0.286761
2.810;-4.861184;-0.290998
2.820;-4.879554;-0.297524
2.830;-4.898430;-0.305909
2.840;-4.917597;-0.315610
2.850;-4.936750;-0.326075
2.860;-4.955523;-0.336797
2.870;-4.973521;-0.347363
2.880;-4.990335;-0.357530
2.890;-5.005542;-0.367313
2.900;-5.018738;-0.377060
2.910;-5.029620;-0.387439
2.920;-5.038106;-0.399320
2.930;-5.044447;-0.413541
2.940;-5.049261;-0.430636
2.950;-5.053453;-0.450620
2.960;-5.058027;-0.472941
2.970;-5.063812;-0.496629
2.980;-5.071218;-0.520592
2.990;-5.080075;-0.543927
3.000;-5.089674;-0.566116
3.010;-5.098996;-0.587025
3.020;-5.107076;-0.606752
3.030;-5.113327;-0.625424
3.040;-5.117701;-0.643100
3.050;-5.120605;-0.659804
3.060;-5.122635;-0.675636
3.070;-5.124273;-0.690840
3.080;-5.125685;-0.705741
3.090;-5.126729;-0.720582
3.100;-5.127117;-0.735380
3.110;-5.126653;-0.749866
3.120;-5.125399;-0.763541
3.130;-5.123703;-0.775797
3.140;-5.122077;-0.786112
3.150;-5.120994;-0.794273
3.160;-5.120712;-0.800536
3.170;-5.121191;-0.805624
3.180;-5.122134;-0.810518
3.190;-5.123107;-0.816131
3.200;-5.123668;-0.822988
3.210;-5.123469;-0.831043
3.220;-5.122316;-0.839701
3.230;-5.120179;-0.848048
3.240;-5.117133;-0.855188
3.250;-5.113284;-0.860570
3.260;-5.108719;-0.864176
3.270;-5.103516;-0.866536
3.280;-5.097782;-0.868554
3.290;-5.091662;-0.871200
3.300;-5.085277;-0.875179
3.310;-5.078578;-0.880709
3.320;-5.071196;-0.887532
3.330;-5.062349;-0.895122
3.340;-5.050924;-0.902962
3.350;-5.035740;-0.910736
3.360;-5.015942;-0.918381
3.370;-4.991384;-0.926019
3.380;-4.962854;-0.933828
3.390;-4.932055;-0.941907
3.400;-4.901296;-0.950180
3.410;-4.872983;-0.958382
3.420;-4.849040;-0.966129
3.430;-4.830470;-0.973059
3.440;-4.817214;-0.978960
3.450;-4.808366;-0.983823
3.460;-4.802604;-0.987792
3.470;-4.798687;-0.991050
3.480;-4.795801;-0.993713
3.490;-4.793683;-0.995792
3.500;-4.792516;-0.997234
3.510;-4.792704;-0.998001
3.520;-4.794635;-0.998123
3.530;-4.798539;-0.997686
3.540;-4.804422;-0.996787
3.550;-4.812084;-0.995494
3.560;-4.821183;-0.993864
3.570;-4.831312;-0.992015
3.580;-4.842059;-0.990175
3.590;-4.853046;-0.988629
3.600;-4.863966;-0.987552
3.610;-4.874657;-0.986844
3.620;-4.885182;-0.986061
3.630;-4.895861;-0.984548
3.640;-4.907197;-0.981711
3.650;-4.919725;-0.977291
3.660;-4.933842;-0.971490
3.670;-4.949690;-0.964872
3.680;-4.967117;-0.958120
3.690;-4.985724;-0.951793
3.700;-5.005001;-0.946225
3.710;-5.024512;-0.941546
3.720;-5.044075;-0.937745
3.730;-5.063824;-0.934665
3.740;-5.084118;-0.931949
3.750;-5.105294;-0.929026
3.760;-5.127353;-0.925193
3.770;-5.149725;-0.919785
3.780;-5.171274;-0.912337
3.790;-5.190583;-0.902671
3.800;-5.206431;-0.890908
3.810;-5.218257;-0.877416
3.820;-5.226392;-0.862747
3.830;-5.231966;-0.847549
3.840;-5.236525;-0.832454
3.850;-5.241529;-0.817947
3.860;-5.247895;-0.804268
3.870;-5.255766;-0.791379
3.880;-5.264556;-0.779025
3.890;-5.273207;-0.766847
3.900;-5.280556;-0.754503
3.910;-5.285675;-0.741764
3.920;-5.288104;-0.728569
3.930;-5.287925;-0.715039
3.940;-5.285669;-0.701460
3.950;-5.282097;-0.688204
3.960;-5.277912;-0.675607
3.970;-5.273506;-0.663828
3.980;-5.268803;-0.652776
3.990;-5.263307;-0.642119
4.000;-5.256320;-0.631378
4.010;-5.247257;-0.620051
4.020;-5.235901;-0.607722
4.030;-5.222470;-0.594139
4.040;-5.207502;-0.579239
4.050;-5.191628;-0.563131
4.060;-5.175341;-0.546043
4.070;-5.158843;-0.528267
4.080;-5.141987;-0.510127
4.090;-5.124316;-0.491960
4.100;-5.105194;-0.474075
4.110;-5.083995;-0.456697
4.120;-5.060309;-0.439917
4.130;-5.034102;-0.423690
4.140;-5.005795;-0.407871
4.150;-4.976250;-0.392284
4.160;-4.946649;-0.376778
4.170;-4.918310;-0.361282
4.180;-4.892461;-0.345851
4.190;-4.870039;-0.330697
4.200;-4.851539;-0.316170
4.210;-4.836963;-0.302671
4.220;-4.825890;-0.290529
4.230;-4.817653;-0.279920
4.240;-4.811554;-0.270857
4.250;-4.807031;-0.263216
4.260;-4.803703;-0.256744
4.270;-4.801304;-0.251064
4.280;-4.799568;-0.245718
4.290;-4.798175;-0.240276
4.300;-4.796807;-0.234455
4.310;-4.795307;-0.228177
4.320;-4.793783;-0.221534
4.330;-4.792590;-0.214692
4.340;-4.792160;-0.207813
4.350;-4.792834;-0.201032
4.360;-4.794781;-0.194477
4.370;-4.798032;-0.188303
4.380;-4.802526;-0.182666
4.390;-4.808123;-0.177674
4.400;-4.814583;-0.173358
4.410;-4.821632;-0.169669
4.420;-4.829092;-0.166509
4.430;-4.836986;-0.163762
4.440;-4.845498;-0.161310
4.450;-4.854796;-0.159048
4.460;-4.864826;-0.156875
4.470;-4.875239;-0.154646
4.480;-4.885486;-0.152126
4.490;-4.895039;-0.148994
4.500;-4.903629;-0.144921
4.510;-4.911400;-0.139665
4.520;-4.918904;-0.133150
4.530;-4.926922;-0.125511
4.540;-4.936174;-0.117104
4.550;-4.947084;-0.108477
4.560;-4.959713;-0.100247
4.570;-4.973882;-0.092899
4.580;-4.989334;-0.086570
4.590;-5.005843;-0.080948
4.600;-5.023218;-0.075375
4.610;-5.041265;-0.069142
4.620;-5.059744;-0.061824
4.630;-5.078349;-0.053515
4.640;-5.096686;-0.044828
4.650;-5.114277;-0.036688
4.660;-5.130623;-0.030028
4.670;-5.145320;-0.025529
4.680;-5.158171;-0.023506
4.690;-5.169187;-0.023962
4.700;-5.178480;-0.026735
4.710;-5.186113;-0.031624
4.720;-5.192014;-0.038433
4.730;-5.196006;-0.046918
4.740;-5.197967;-0.056691
4.750;-5.198033;-0.067173
4.760;-5.196726;-0.077636
4.770;-5.194897;-0.087324
4.780;-5.193484;-0.095622
4.790;-5.193210;-0.102214
4.800;-5.194370;-0.107176
4.810;-5.196811;-0.110983
4.820;-5.200098;-0.114366
4.830;-5.203773;-0.118077
4.840;-5.207571;-0.122622
4.850;-5.211495;-0.128105
4.860;-5.215736;-0.134272
4.870;-5.220495;-0.140680
4.880;-5.225809;-0.146891
4.890;-5.231487;-0.152559
4.900;-5.237197;-0.157430
4.910;-5.242674;-0.161341
4.920;-5.247933;-0.164265
4.930;-5.253351;-0.166412
4.940;-5.259594;-0.168295
4.950;-5.267387;-0.170685
4.960;-5.277255;-0.174416
4.970;-5.289319;-0.180072
4.980;-5.303222;-0.187688
4.990;-5.318227;-0.196624
5.000;-5.333439;-0.205689
5.010;-5.348089;-0.213505
5.020;-5.361764;-0.218922
5.030;-5.374506;-0.221324
5.040;-5.386747;-0.220705
5.050;-5.399103;-0.217527
5.060;-5.412108;-0.212463
5.070;-5.426000;-0.206184
5.080;-5.440636;-0.199247
5.090;-5.455609;-0.192079
5.100;-5.470483;-0.184989
5.110;-5.485040;-0.178139
5.120;-5.499397;-0.171491
5.130;-5.513975;-0.164774
5.140;-5.529361;-0.157513
5.150;-5.546144;-0.149136
5.160;-5.564764;-0.139143
5.170;-5.585343;-0.127311
5.180;-5.607517;-0.113866
5.190;-5.630324;-0.099548
5.200;-5.652258;-0.085496
5.210;-5.671562;-0.072950
5.220;-5.686683;-0.062888
5.230;-5.696705;-0.055744
5.240;-5.701580;-0.051298
5.250;-5.702045;-0.048769
5.260;-5.699302;-0.047054
5.270;-5.694624;-0.045053
5.280;-5.689090;-0.041982
5.290;-5.683495;-0.037583
5.300;-5.678371;-0.032172
5.310;-5.674015;-0.026499
5.320;-5.670490;-0.021491
5.330;-5.667611;-0.017951
5.340;-5.664985;-0.016320
5.350;-5.662114;-0.016543
5.360;-5.658542;-0.018094
5.370;-5.653987;-0.020147
5.380;-5.648391;-0.021869
5.390;-5.641876;-0.022677
5.400;-5.634636;-0.022403
5.410;-5.626845;-0.021284
5.420;-5.618675;-0.019858
5.430;-5.610391;-0.018812
5.440;-5.602429;-0.018867
5.450;-5.595335;-0.020701
5.460;-5.589553;-0.024888
5.470;-5.585205;-0.031832
5.480;-5.581999;-0.041695
5.490;-5.579326;-0.054363
5.500;-5.576483;-0.069452
5.510;-5.572920;-0.086373
5.520;-5.568415;-0.104419
5.530;-5.563103;-0.122848
5.540;-5.557374;-0.140939
5.550;-5.551692;-0.158033
5.560;-5.546406;-0.173582
5.570;-5.541630;-0.187221
5.580;-5.537241;-0.198838
5.590;-5.532987;-0.208611
5.600;-5.528655;-0.216984
5.610;-5.524176;-0.224575
5.620;-5.519624;-0.232012
5.630;-5.515102;-0.239769
5.640;-5.510592;-0.248042
5.650;-5.505872;-0.256715
5.660;-5.500554;-0.265419
5.670;-5.494261;-0.273639
5.680;-5.486846;-0.280847
5.690;-5.478515;-0.286572
5.700;-5.469767;-0.290437
5.710;-5.461194;-0.292170
5.720;-5.453255;-0.291670
5.730;-5.446132;-0.289082
5.740;-5.439709;-0.284831
5.750;-5.433649;-0.279537
5.760;-5.427534;-0.273827
5.770;-5.420994;-0.268113
5.780;-5.413775;-0.262439
5.790;-5.405752;-0.256497
5.800;-5.396888;-0.249779
5.810;-5.387182;-0.241817
5.820;-5.376597;-0.232357
5.830;-5.365037;-0.221444
5.840;-5.352396;-0.209396
5.850;-5.338683;-0.196733
5.860;-5.324150;-0.184088
5.870;-5.309327;-0.172114
5.880;-5.294919;-0.161375
5.890;-5.281624;-0.152249
5.900;-5.269969;-0.144862
5.910;-5.260254;-0.139078
5.920;-5.252578;-0.134553
5.930;-5.246886;-0.130873
5.940;-5.242976;-0.127726
5.950;-5.240477;-0.125019
5.960;-5.238884;-0.122847
5.970;-5.237665;-0.121344
5.980;-5.236393;-0.120509
5.990;-5.234794;-0.120146
6.000;-5.232695;-0.119950
6.010;-5.229938;-0.119690
6.020;-5.226377;-0.119377
6.030;-5.221990;-0.119282
6.040;-5.217028;-0.119787
6.050;-5.212056;-0.121153
6.060;-5.207823;-0.123358
6.070;-5.205010;-0.126111
6.080;-5.203966;-0.129010
6.090;-5.204560;-0.131736
6.100;-5.206182;-0.134213
6.110;-5.207915;-0.136643
6.120;-5.208823;-0.139433
6.130;-5.208263;-0.143025
6.140;-5.206083;-0.147729
6.150;-5.202590;-0.153627
6.160;-5.198310;-0.160539
6.170;-5.193650;-0.168056
6.180;-5.188671;-0.175641
6.190;-5.183107;-0.182765
6.200;-5.176601;-0.189059
6.210;-5.168995;-0.194410
6.220;-5.160485;-0.198967
6.230;-5.151559;-0.203062
6.240;-5.142803;-0.207078
6.250;-5.134662;-0.211320
6.260;-5.127284;-0.215921
6.270;-5.120470;-0.220827
6.280;-5.113766;-0.225890
6.290;-5.106633;-0.230999
6.300;-5.098619;-0.236146
6.310;-5.089471;-0.241380
6.320;-5.079153;-0.246688
6.330;-5.067810;-0.251942
6.340;-5.055718;-0.256952
6.350;-5.043220;-0.261597
6.360;-5.030667;-0.265895
6.370;-5.018335;-0.269951
6.380;-5.006332;-0.273840
6.390;-4.994521;-0.277549
6.400;-4.982539;-0.281023
6.410;-4.969911;-0.284282
6.420;-4.956251;-0.287487
6.430;-4.941468;-0.290905
6.440;-4.925906;-0.294799
6.450;-4.910339;-0.299350
6.460;-4.895819;-0.304646
6.470;-4.883411;-0.310718
6.480;-4.873914;-0.317565
6.490;-4.867648;-0.325168
6.500;-4.864378;-0.333489
6.510;-4.863401;-0.342497
6.520;-4.863754;-0.352171
6.530;-4.864499;-0.362486
6.540;-4.864973;-0.373376
6.550;-4.864937;-0.384721
6.560;-4.864595;-0.396370
6.570;-4.864504;-0.408189
6.580;-4.865383;-0.420108
6.590;-4.867874;-0.432124
6.600;-4.872306;-0.444265
6.610;-4.878554;-0.456537
6.620;-4.886075;-0.468902
6.630;-4.894114;-0.481266
6.640;-4.901973;-0.493474
6.650;-4.909226;-0.505282
6.660;-4.915796;-0.516368
6.670;-4.921882;-0.526389
6.680;-4.927806;-0.535083
6.690;-4.933843;-0.542355
6.700;-4.940118;-0.548317
6.710;-4.946578;-0.553254
6.720;-4.953035;-0.557525
6.730;-4.959253;-0.561442
6.740;-4.965084;-0.565143
6.750;-4.970620;-0.568538
6.760;-4.976301;-0.571341
6.770;-4.982858;-0.573217
6.780;-4.991085;-0.573977
6.790;-5.001511;-0.573726
6.800;-5.014144;-0.572891
6.810;-5.028404;-0.572098
6.820;-5.043314;-0.571968
6.830;-5.057845;-0.572936
6.840;-5.071260;-0.575180
6.850;-5.083305;-0.578653
6.860;-5.094176;-0.583162
6.870;-5.104332;-0.588380
6.880;-5.114312;-0.593849
6.890;-5.124615;-0.599016
6.900;-5.135650;-0.603369
6.910;-5.147698;-0.606615
6.920;-5.160842;-0.608773
6.930;-5.174914;-0.610124
6.940;-5.189527;-0.611020
6.950;-5.204191;-0.611675
6.960;-5.218474;-0.612063
6.970;-5.232132;-0.611982
6.980;-5.245152;-0.611244
6.990;-5.257709;-0.609855
7.000;-5.270059;-0.608066
7.010;-5.282411;-0.606252
7.020;-5.294818;-0.604721
7.030;-5.307138;-0.603572
7.040;-5.319107;-0.602692
7.050;-5.330538;-0.601854
7.060;-5.341581;-0.600844
7.070;-5.352860;-0.599546
7.080;-5.365313;-0.597959
7.090;-5.379739;-0.596153
7.100;-5.396265;-0.594183
7.110;-5.414060;-0.592007
7.120;-5.431495;-0.589436
7.130;-5.446693;-0.586159
7.140;-5.458196;-0.581860
7.150;-5.465413;-0.576367
7.160;-5.468702;-0.569757
7.170;-5.469090;-0.562340
7.180;-5.467831;-0.554555
7.190;-5.466020;-0.546878
7.200;-5.464380;-0.539749
7.210;-5.463244;-0.533521
7.220;-5.462651;-0.528404
7.230;-5.462483;-0.524429
7.240;-5.462569;-0.521483
7.250;-5.462758;-0.519397
7.260;-5.462924;-0.518039
7.270;-5.462920;-0.517373
7.280;-5.462512;-0.517459
7.290;-5.461365;-0.518390
7.300;-5.459132;-0.520201
7.310;-5.455640;-0.522765
7.320;-5.451063;-0.525740
7.330;-5.445956;-0.528612
7.340;-5.441103;-0.530848
7.350;-5.437241;-0.532103
7.360;-5.434816;-0.532380
7.370;-5.433852;-0.532056
7.380;-5.433994;-0.531738
7.390;-5.434668;-0.532013
7.400;-5.435294;-0.533191
7.410;-5.435482;-0.535141
7.420;-5.435145;-0.537324
7.430;-5.434510;-0.539022
7.440;-5.433990;-0.539651
7.450;-5.433980;-0.539035
7.460;-5.434649;-0.537479
7.470;-5.435830;-0.535641
7.480;-5.437071;-0.534248
7.490;-5.437855;-0.533822
7.500;-5.437874;-0.534548
7.510;-5.437194;-0.536311
7.520;-5.436226;-0.538810
7.530;-5.435536;-0.541684
7.540;-5.435602;-0.544613
7.550;-5.436655;-0.547381
7.560;-5.438652;-0.549880
7.570;-5.441342;-0.552055
7.580;-5.444357;-0.553838
7.590;-5.447276;-0.555128
7.600;-5.449694;-0.555830
7.610;-5.451317;-0.555933
7.620;-5.452067;-0.555576
7.630;-5.452136;-0.555071
7.640;-5.451939;-0.554863
7.650;-5.451957;-0.555394
7.660;-5.452551;-0.556968
7.670;-5.453817;-0.559640
7.680;-5.455555;-0.563196
