Time[s];COPx[cm];COPy[cm]
0.010;1.177127;1.903785
0.020;1.183331;1.913426
0.030;1.189405;1.922081
0.040;1.195174;1.928946
0.050;1.200342;1.933322
0.060;1.204507;1.934722
0.070;1.207244;1.932977
0.080;1.208215;1.928276
0.090;1.207312;1.921135
0.100;1.204760;1.912282
0.110;1.201150;1.902497
0.120;1.197347;1.892458
0.130;1.194310;1.882630
0.140;1.192892;1.873251
0.150;1.193677;1.864417
0.160;1.196922;1.856263
0.170;1.202567;1.849143
0.180;1.210287;1.843694
0.190;1.219538;1.840718
0.200;1.229594;1.840927
0.210;1.239611;1.844656
0.220;1.248783;1.851704
0.230;1.256578;1.861379
0.240;1.262975;1.872733
0.250;1.268596;1.884869
0.260;1.274614;1.897179
0.270;1.282469;1.909436
0.280;1.293478;1.921717
0.290;1.308489;1.934213
0.300;1.327730;1.947013
0.310;1.350861;1.959951
0.320;1.377205;1.972592
0.330;1.406011;1.984356
0.340;1.436675;1.994732
0.350;1.468852;2.003497
0.360;1.502471;2.010807
0.370;1.537670;2.017125
0.380;1.574678;2.023029
0.390;1.613678;2.028999
0.400;1.654687;2.035264
0.410;1.697477;2.041732
0.420;1.741540;2.048009
0.430;1.786120;2.053485
0.440;1.830291;2.057509
0.450;1.873084;2.059580
0.460;1.913642;2.059491
0.470;1.951339;2.057365
0.480;1.985813;2.053561
0.490;2.016889;2.048502
0.500;2.044431;2.042463
0.510;2.068200;2.035396
0.520;2.087795;2.026878
0.530;2.102724;2.016261
0.540;2.112581;2.002994
0.550;2.117235;1.986977
0.560;2.116953;1.968778
0.570;2.112400;1.949579
0.580;2.104553;1.930847
0.590;2.094562;1.913855
0.600;2.083579;1.899230
0.610;2.072590;1.886732
0.620;2.062254;1.875371
0.630;2.052799;1.863810
0.640;2.044025;1.850882
0.650;2.035449;1.835999
0.660;2.026561;1.819327
0.670;2.017084;1.801675
0.680;2.007090;1.784181
0.690;1.996923;1.767897
0.700;1.986948;1.753398
0.710;1.977273;1.740553
0.720;1.967601;1.728535
0.730;1.957320;1.716104
0.740;1.945768;1.702031
0.750;1.932524;1.685495
0.760;1.917527;1.666281
0.770;1.900967;1.644725
0.780;1.882992;1.621478
0.790;1.863375;1.597226
0.800;1.841333;1.572485
0.810;1.815579;1.547521
0.820;1.784608;1.522385
0.830;1.747097;1.497021
0.840;1.702267;1.471396
0.850;1.650113;1.445643
0.860;1.591462;1.420162
0.870;1.527874;1.395632
0.880;1.461424;1.372897
0.890;1.394419;1.352705
0.900;1.329087;1.335413
0.910;1.267297;1.320784
0.920;1.210339;1.307981
0.930;1.158839;1.295774
0.940;1.112857;1.282873
0.950;1.072142;1.268325
0.960;1.036477;1.251846
0.970;1.005975;1.233992
0.980;0.981184;1.216028
0.990;0.962960;1.199488
1.000;0.952129;1.185576
1.010;0.949091;1.174677
1.020;0.953543;1.166198
1.030;0.964438;1.158808
1.040;0.980160;1.150923
1.050;0.998830;1.141247
1.060;1.018617;1.129148
1.070;1.037991;1.114782
1.080;1.055865;1.098937
1.090;1.071661;1.082679
1.100;1.085291;1.066968
1.110;1.097065;1.052377
1.120;1.107548;1.039000
1.130;1.117365;1.026533
1.140;1.127001;1.014479
1.150;1.136635;1.002369
1.160;1.146065;0.989921
1.170;1.154773;0.977082
1.180;1.162109;0.964010
1.190;1.167526;0.951095
1.200;1.170794;0.939015
1.210;1.172098;0.928773
1.220;1.171995;0.921585
1.230;1.171247;0.918586
1.240;1.170620;0.920428
1.250;1.170727;0.926949
1.260;1.171936;0.937078
1.270;1.174331;0.949081
1.280;1.177680;0.961079
1.290;1.181423;0.971634
1.300;1.184691;0.980172
1.310;1.186426;0.987066
1.320;1.185592;0.993378
1.330;1.181415;1.000364
1.340;1.173580;1.008963
1.350;1.162307;1.019445
1.360;1.148283;1.031319
1.370;1.132453;1.043523
1.380;1.115726;1.054785
1.390;1.098692;1.064024
1.400;1.081415;1.070665
1.410;1.063369;1.074800
1.420;1.043526;1.077193
1.430;1.020618;1.079127
1.440;0.993501;1.082147
1.450;0.961551;1.087784
1.460;0.924967;1.097314
1.470;0.884876;1.111621
1.480;0.843200;1.131106
1.490;0.802277;1.155602
1.500;0.764389;1.184286
1.510;0.731338;1.215657
1.520;0.704235;1.247687
1.530;0.683525;1.278158
1.540;0.669135;1.305145
1.550;0.660614;1.327468
1.560;0.657188;1.344965
1.570;0.657769;1.358422
1.580;0.660999;1.369201
1.590;0.665424;1.378659
1.600;0.669771;1.387638
1.610;0.673216;1.396214
1.620;0.675482;1.403824
1.630;0.676714;1.409709
1.640;0.677186;1.413458
1.650;0.677019;1.415430
1.660;0.676045;1.416845
1.670;0.673880;1.419523
1.680;0.670123;1.425360
1.690;0.664587;1.435753
1.700;0.657415;1.451155
1.710;0.649057;1.470906
1.720;0.640114;1.493386
1.730;0.631154;1.516425
1.740;0.622577;1.537860
1.750;0.614564;1.556087
1.760;0.607109;1.570441
1.770;0.600068;1.581308
1.780;0.593197;1.589929
1.790;0.586194;1.597968
1.800;0.578784;1.607003
1.810;0.570830;1.618114
1.820;0.562421;1.631708
1.830;0.553885;1.647584
1.840;0.545701;1.665177
1.850;0.538379;1.683845
1.860;0.532360;1.703061
1.870;0.527964;1.722463
1.880;0.525357;1.741782
1.890;0.524514;1.760737
1.900;0.525159;1.778984
1.910;0.526741;1.796133
1.920;0.528494;1.811828
1.930;0.529582;1.825813
1.940;0.529283;1.837966
1.950;0.527147;1.848289
1.960;0.523057;1.856893
1.970;0.517175;1.864011
1.980;0.509814;1.870058
1.990;0.501295;1.875706
2.000;0.491859;1.881898
2.010;0.481634;1.889723
2.020;0.470637;1.900136
2.030;0.458772;1.913597
2.040;0.445847;1.929783
2.050;0.431626;1.947490
2.060;0.415925;1.964843
2.070;0.398736;1.979768
2.080;0.380313;1.990610
2.090;0.361169;1.996670
2.100;0.341944;1.998461
2.110;0.323179;1.997561
2.120;0.305070;1.996086
2.130;0.287331;1.995941
2.140;0.269235;1.998141
2.150;0.249843;2.002471
2.160;0.228341;2.007607
2.170;0.204354;2.011652
2.180;0.178125;2.012829
2.190;0.150457;2.010101
2.200;0.122456;2.003488
2.210;0.095172;1.994034
2.220;0.069275;1.983458
2.230;0.044896;1.973636
2.240;0.021648;1.966090
2.250;-0.001191;1.961681
2.260;-0.024413;1.960555
2.270;-0.048576;1.962344
2.280;-0.073722;1.966491
2.290;-0.099195;1.972556
2.300;-0.123640;1.980362
2.310;-0.145259;1.989961
2.320;-0.162289;2.001496
2.330;-0.173564;2.015059
2.340;-0.178953;2.030590
2.350;-0.179482;2.047825
2.360;-0.177099;2.066260
2.370;-0.174156;2.085155
2.380;-0.172804;2.103583
2.390;-0.174516;2.120546
2.400;-0.179899;2.135122
2.410;-0.188829;2.146630
2.420;-0.200818;2.154767
2.430;-0.215401;2.159680
2.440;-0.232372;2.161934
2.450;-0.251775;2.162364
2.460;-0.273708;2.161822
2.470;-0.298076;2.160917
2.480;-0.324401;2.159834
2.490;-0.351805;2.158312
2.500;-0.379136;2.155828
2.510;-0.405173;2.151916
2.520;-0.428806;2.146482
2.530;-0.449142;2.139929
2.540;-0.465532;2.132997
2.550;-0.477540;2.126402
2.560;-0.484856;2.120440
2.570;-0.487195;2.114774
2.580;-0.484250;2.108504
2.590;-0.475768;2.100496
2.600;-0.461737;2.089835
2.610;-0.442621;2.076206
2.620;-0.419505;2.060079
2.630;-0.394071;2.042649
2.640;-0.368375;2.025582
2.650;-0.344479;2.010616
2.660;-0.324067;1.999168
2.670;-0.308165;1.991999
2.680;-0.297076;1.989044
2.690;-0.290543;1.989401
2.700;-0.288069;1.991503
2.710;-0.289261;1.993441
2.720;-0.294041;1.993390
2.730;-0.302661;1.990039
2.740;-0.315497;1.982891
2.750;-0.332709;1.972337
2.760;-0.353905;1.959467
2.770;-0.377987;1.945698
2.780;-0.403226;1.932369
2.790;-0.427581;1.920440
2.800;-0.449098;1.910378
2.810;-0.466263;1.902222
2.820;-0.478189;1.895691
2.830;-0.484610;1.890298
2.840;-0.485759;1.885413
2.850;-0.482228;1.880325
2.860;-0.474876;1.874327
2.870;-0.464822;1.866843
2.880;-0.453443;1.857569
2.890;-0.442297;1.846551
2.900;-0.432920;1.834147
2.910;-0.426534;1.820863
2.920;-0.423805;1.807158
2.930;-0.424781;1.793277
2.940;-0.429054;1.779196
2.950;-0.436078;1.764712
2.960;-0.445478;1.749643
2.970;-0.457244;1.734087
2.980;-0.471761;1.718597
2.990;-0.489684;1.704177
3.000;-0.511730;1.692041
3.010;-0.538424;1.683215
3.020;-0.569848;1.678117
3.030;-0.605464;1.676281
3.040;-0.644083;1.676398
3.050;-0.684020;1.676687
3.060;-0.723404;1.675490
3.070;-0.760568;1.671846
3.080;-0.794361;1.665805
3.090;-0.824281;1.658383
3.100;-0.850330;1.651180
3.110;-0.872663;1.645803
3.120;-0.891165;1.643322
3.130;-0.905184;1.643974
3.140;-0.913573;1.647254
3.150;-0.915065;1.652304
3.160;-0.908839;1.658359
3.170;-0.895056;1.665006
3.180;-0.875166;1.672171
3.190;-0.851872;1.679949
3.200;-0.828721;1.688421
3.210;-0.809407;1.697593
3.220;-0.796938;1.707454
3.230;-0.792915;1.718059
3.240;-0.797168;1.729526
3.250;-0.807900;1.741926
3.260;-0.822295;1.755147
3.270;-0.837391;1.768825
3.280;-0.850912;1.782400
3.290;-0.861799;1.795246
3.300;-0.870300;1.806842
3.310;-0.877628;1.816916
3.320;-0.885385;1.825543
3.330;-0.894948;1.833135
3.340;-0.907049;1.840348
3.350;-0.921633;1.847888
3.360;-0.938017;1.856321
3.370;-0.955246;1.865935
3.380;-0.972467;1.876744
3.390;-0.989145;1.888631
3.400;-1.005036;1.901558
3.410;-1.019962;1.915729
3.420;-1.033596;1.931582
3.430;-1.045398;1.949615
3.440;-1.054807;1.970092
3.450;-1.061558;1.992777
3.460;-1.065935;2.016820
3.470;-1.068783;2.040934
3.480;-1.071240;2.063834
3.490;-1.074306;2.084788
3.500;-1.078449;2.104047
3.510;-1.083401;2.122912
3.520;-1.088237;2.143367
3.530;-1.091693;2.167346
3.540;-1.092592;2.195972
3.550;-1.090217;2.229080
3.560;-1.084464;2.265225
3.570;-1.075767;2.302147
3.580;-1.064877;2.337433
3.590;-1.052662;2.369136
3.600;-1.040005;2.396190
3.610;-1.027794;2.418609
3.620;-1.016880;2.437479
3.630;-1.007939;2.454755
3.640;-1.001259;2.472812
3.650;-0.996589;2.493814
3.660;-0.993141;2.519089
3.670;-0.989805;2.548761
3.680;-0.985491;2.581826
3.690;-0.979467;2.616615
3.700;-0.971548;2.651447
3.710;-0.962089;2.685192
3.720;-0.951785;2.717531
3.730;-0.941416;2.748852
3.740;-0.931617;2.779830
3.750;-0.922757;2.810900
3.760;-0.914905;2.841858
3.770;-0.907874;2.871810
3.780;-0.901293;2.899549
3.790;-0.894694;2.924170
3.800;-0.887611;2.945587
3.810;-0.879684;2.964651
3.820;-0.870749;2.982780
3.830;-0.860875;3.001315
3.840;-0.850306;3.020922
3.850;-0.839322;3.041298
3.860;-0.828094;3.061239
3.870;-0.816609;3.078977
3.880;-0.804746;3.092687
3.890;-0.792467;3.101046
3.900;-0.780025;3.103694
3.910;-0.768041;3.101417
3.920;-0.757364;3.095933
3.930;-0.748769;3.089332
3.940;-0.742621;3.083393
3.950;-0.738713;3.078998
3.960;-0.736341;3.075891
3.970;-0.734586;3.072887
3.980;-0.732629;3.068451
3.990;-0.729953;3.061419
4.000;-0.726348;3.051552
4.010;-0.721778;3.039701
4.020;-0.716202;3.027554
4.030;-0.709479;3.017096
4.040;-0.701365;3.009999
4.050;-0.691592;3.007163
4.060;-0.679953;3.008531
4.070;-0.666347;3.013166
4.080;-0.650756;3.019554
4.090;-0.633194;3.026009
4.100;-0.613629;3.031076
4.110;-0.591900;3.033782
4.120;-0.567701;3.033670
4.130;-0.540645;3.030640
4.140;-0.510434;3.024748
4.150;-0.477024;3.016083
4.160;-0.440765;3.004819
4.170;-0.402412;2.991353
4.180;-0.363032;2.976441
4.190;-0.323806;2.961195
4.200;-0.285816;2.946932
4.210;-0.249858;2.934918
4.220;-0.216351;2.926094
4.230;-0.185359;2.920840
4.240;-0.156724;2.918860
4.250;-0.130246;2.919224
4.260;-0.105814;2.920574
4.270;-0.083418;2.921435
4.280;-0.063078;2.920528
4.290;-0.044742;2.917002
4.300;-0.028251;2.910523
4.310;-0.013367;2.901242
4.320;0.000179;2.889693
4.330;0.012692;2.876700
4.340;0.024593;2.863319
4.350;0.036521;2.850767
4.360;0.049396;2.840282
4.370;0.064368;2.832901
4.380;0.082651;2.829166
4.390;0.105292;2.828873
4.400;0.132949;2.830978
4.410;0.165776;2.833764
4.420;0.203462;2.835292
4.430;0.245399;2.833969
4.440;0.290868;2.829021
4.450;0.339181;2.820635
4.460;0.389726;2.809740
4.470;0.441919;2.797520
4.480;0.495124;2.784915
4.490;0.548594;2.772321
4.500;0.601462;2.759605
4.510;0.652784;2.746349
4.520;0.701583;2.732165
4.530;0.746878;2.716910
4.540;0.787702;2.700718
4.550;0.823141;2.683903
4.560;0.852414;2.666811
4.570;0.874958;2.649743
4.580;0.890480;2.632945
4.590;0.898947;2.616652
4.600;0.900491;2.601087
4.610;0.895314;2.586405
4.620;0.883638;2.572588
4.630;0.865769;2.559388
4.640;0.842235;2.546348
4.650;0.813931;2.532897
4.660;0.782155;2.518480
4.670;0.748518;2.502634
4.680;0.714739;2.485024
4.690;0.682368;2.465448
4.700;0.652516;2.443893
4.710;0.625666;2.420621
4.720;0.601627;2.396250
4.730;0.579668;2.371712
4.740;0.558790;2.348059
4.750;0.538080;2.326158
4.760;0.516989;2.306412
4.770;0.495444;2.288645
4.780;0.473751;2.272195
4.790;0.452336;2.256198
4.800;0.431467;2.239903
4.810;0.411074;2.222911
4.820;0.390728;2.205221
4.830;0.369741;2.187079
4.840;0.347338;2.168750
4.850;0.322794;2.150355
4.860;0.295489;2.131866
4.870;0.264874;2.113246
4.880;0.230432;2.094601
4.890;0.191717;2.076265
4.900;0.148522;2.058749
4.910;0.101127;2.042605
4.920;0.050504;2.028280
4.930;-0.001668;2.016004
4.940;-0.053244;2.005749
4.950;-0.101997;1.997253
4.960;-0.145989;1.990075
4.970;-0.183750;1.983693
4.980;-0.214261;1.977610
4.990;-0.236821;1.971458
5.000;-0.250920;1.965018
5.010;-0.256177;1.958167
5.020;-0.252332;1.950749
5.030;-0.239278;1.942473
5.040;-0.217151;1.932913
5.050;-0.186507;1.921637
5.060;-0.148549;1.908387
5.070;-0.105300;1.893205
5.080;-0.059584;1.876449
5.090;-0.014751;1.858711
5.100;0.025812;1.840698
5.110;0.059266;1.823140
5.120;0.083823;1.806750
5.130;0.098997;1.792194
5.140;0.105505;1.780039
5.150;0.104849;1.770638
5.160;0.098750;1.763979
5.170;0.088644;1.759578
5.180;0.075411;1.756528
5.190;0.059357;1.753741
5.200;0.040415;1.750357
5.210;0.018440;1.746127
5.220;-0.006497;1.741608
5.230;-0.033891;1.738060
5.240;-0.062755;1.737066
5.250;-0.091738;1.740023
5.260;-0.119394;1.747662
5.270;-0.144505;1.759746
5.280;-0.166342;1.775019
5.290;-0.184775;1.791418
5.300;-0.200212;1.806508
5.310;-0.213413;1.818032
5.320;-0.225270;1.824426
5.330;-0.236614;1.825142
5.340;-0.248086;1.820684
5.350;-0.260055;1.812368
5.360;-0.272607;1.801945
5.370;-0.285608;1.791201
5.380;-0.298865;1.781665
5.390;-0.312329;1.774409
5.400;-0.326260;1.769924
5.410;-0.341240;1.768048
5.420;-0.358020;1.768001
5.430;-0.377211;1.768587
5.440;-0.398985;1.768527
5.450;-0.422894;1.766804
5.460;-0.447923;1.762865
5.470;-0.472743;1.756614
5.480;-0.496029;1.748273
5.490;-0.516692;1.738199
5.500;-0.533966;1.726791
5.510;-0.547371;1.714487
5.520;-0.556663;1.701814
5.530;-0.561810;1.689377
5.540;-0.562988;1.677758
5.550;-0.560548;1.667359
5.560;-0.554917;1.658301
5.570;-0.546470;1.650427
5.580;-0.535461;1.643414
5.590;-0.522073;1.636930
5.600;-0.506572;1.630720
5.610;-0.489468;1.624616
5.620;-0.471596;1.618474
5.630;-0.454078;1.612137
5.640;-0.438192;1.605449
5.650;-0.425171;1.598336
5.660;-0.415994;1.590893
5.670;-0.411192;1.583433
5.680;-0.410747;1.576425
5.690;-0.414115;1.570337
5.700;-0.420376;1.565438
5.710;-0.428458;1.561667
5.720;-0.437352;1.558615
5.730;-0.446243;1.555618
5.740;-0.454510;1.551909
5.750;-0.461620;1.546795
5.760;-0.466980;1.539809
5.770;-0.469828;1.530819
5.780;-0.469247;1.520045
5.790;-0.464287;1.507955
5.800;-0.454163;1.495058
5.810;-0.438463;1.481680
5.820;-0.417301;1.467830
5.830;-0.391387;1.453229
5.840;-0.362000;1.437480
5.850;-0.330881;1.420280
5.860;-0.300042;1.401598
5.870;-0.271514;1.381751
5.880;-0.247041;1.361386
5.890;-0.227808;1.341347
5.900;-0.214281;1.322483
5.910;-0.206230;1.305421
5.920;-0.202919;1.290377
5.930;-0.203387;1.277076
5.940;-0.206704;1.264823
5.950;-0.212146;1.252704
5.960;-0.219302;1.239873
5.970;-0.228082;1.225836
5.980;-0.238627;1.210677
5.990;-0.251094;1.195131
6.000;-0.265356;1.180425
6.010;-0.280745;1.167861
6.020;-0.295995;1.158252
6.030;-0.309447;1.151415
6.040;-0.319472;1.145975
6.050;-0.324932;1.139623
6.060;-0.325490;1.129804
6.070;-0.321655;1.114600
6.080;-0.314572;1.093493
6.090;-0.305672;1.067713
6.100;-0.296324;1.040000
6.110;-0.287604;1.013859
6.120;-0.280214;0.992548
6.130;-0.274524;0.978165
6.140;-0.270677;0.971125
6.150;-0.268677;0.970157
6.160;-0.268481;0.972789
6.170;-0.270090;0.976130
6.180;-0.273690;0.977738
6.190;-0.279814;0.976317
6.200;-0.289431;0.972058
6.210;-0.303850;0.966490
6.220;-0.324404;0.961926
6.230;-0.351951;0.960669
6.240;-0.386351;0.964267
6.250;-0.426101;0.973060
6.260;-0.468293;0.986161
6.270;-0.509013;1.001869
6.280;-0.544130;1.018330
6.290;-0.570246;1.034153
6.300;-0.585503;1.048726
6.310;-0.589924;1.062145
6.320;-0.585210;1.074858
6.330;-0.574084;1.087266
6.340;-0.559480;1.099469
6.350;-0.543828;1.111248
6.360;-0.528657;1.122216
6.370;-0.514525;1.132033
6.380;-0.501205;1.140540
6.390;-0.487998;1.147808
6.400;-0.474061;1.154114
6.410;-0.458703;1.159921
6.420;-0.441610;1.165842
6.430;-0.422970;1.172579
6.440;-0.403481;1.180807
6.450;-0.384240;1.191044
6.460;-0.366521;1.203533
6.470;-0.351507;1.218151
6.480;-0.340030;1.234408
6.490;-0.332373;1.251517
6.500;-0.328191;1.268569
6.510;-0.326555;1.284768
6.520;-0.326127;1.299652
6.530;-0.325374;1.313200
6.540;-0.322793;1.325798
6.550;-0.317083;1.338074
6.560;-0.307280;1.350696
6.570;-0.292831;1.364197
6.580;-0.273628;1.378877
6.590;-0.250006;1.394749
6.600;-0.222696;1.411551
6.610;-0.192742;1.428815
6.620;-0.161363;1.446041
6.630;-0.129780;1.462933
6.640;-0.099037;1.479577
6.650;-0.069871;1.496407
6.660;-0.042644;1.513873
6.670;-0.017349;1.531970
6.680;0.006315;1.549881
6.690;0.028791;1.566032
6.700;0.050458;1.578638
6.710;0.071447;1.586550
6.720;0.091569;1.589998
6.730;0.110381;1.590844
6.740;0.127388;1.592175
6.750;0.142269;1.597445
6.760;0.155048;1.609533
6.770;0.166098;1.630094
6.780;0.176007;1.659364
6.790;0.185379;1.696416
6.800;0.194668;1.739660
6.810;0.204131;1.787347
6.820;0.213901;1.837876
6.830;0.224129;1.889849
6.840;0.235071;1.941977
6.850;0.247033;1.993036
6.860;0.260169;2.041962
6.870;0.274232;2.088040
6.880;0.288460;2.131008
6.890;0.301692;2.170955
6.900;0.312711;2.208071
6.910;0.320648;2.242407
6.920;0.325270;2.273787
6.930;0.327037;2.301917
6.940;0.326880;2.326587
6.950;0.325824;2.347841
6.960;0.324596;2.366021
6.970;0.323397;2.381704
6.980;0.321913;2.395595
6.990;0.319512;2.408464
7.000;0.315517;2.421094
7.010;0.309427;2.434211
7.020;0.301045;2.448365
7.030;0.290536;2.463759
7.040;0.278413;2.480075
7.050;0.265471;2.496397
7.060;0.252656;2.511359
7.070;0.240867;2.523508
7.080;0.230767;2.531777
7.090;0.222648;2.535825
7.100;0.216394;2.536103
7.110;0.211540;2.533656
7.120;0.207405;2.529819
7.130;0.203240;2.525948
7.140;0.198363;2.523259
7.150;0.192238;2.522722
7.160;0.184485;2.524969
7.170;0.174827;2.530224
7.180;0.163005;2.538283
7.190;0.148727;2.548593
7.200;0.131684;2.560414
7.210;0.111647;2.572999
7.220;0.088604;2.585706
7.230;0.062833;2.597982
7.240;0.034854;2.609301
7.250;0.005253;2.619116
7.260;-0.025520;2.626926
7.270;-0.057285;2.632407
7.280;-0.090094;2.635538
7.290;-0.124043;2.636639
7.300;-0.158991;2.636303
7.310;-0.194309;2.635225
7.320;-0.228779;2.634007
7.330;-0.260694;2.632977
7.340;-0.288152;2.632080
7.350;-0.309474;2.630884
7.360;-0.323616;2.628702
7.370;-0.330444;2.624798
7.380;-0.330768;2.618625
7.390;-0.326169;2.610032
7.400;-0.318681;2.599381
7.410;-0.310462;2.587538
7.420;-0.303494;2.575720
7.430;-0.299344;2.565254
7.440;-0.298969;2.557319
7.450;-0.302613;2.552685
7.460;-0.309840;2.551536
7.470;-0.319727;2.553418
7.480;-0.331194;2.557396
7.490;-0.343355;2.562371
7.500;-0.355781;2.567427
7.510;-0.368580;2.572030
7.520;-0.382256;2.575992
7.530;-0.397401;2.579262
7.540;-0.414346;2.581712
7.550;-0.432906;2.583070
7.560;-0.452333;2.583012
7.570;-0.471522;2.581332
7.580;-0.489365;2.578056
7.590;-0.505059;2.573455
7.600;-0.518215;2.567965
7.610;-0.528724;2.562078
7.620;-0.536532;2.556230
7.630;-0.541470;2.550707
7.640;-0.543253;2.545571
7.650;-0.541615;2.540623
7.660;-0.536492;2.535439
7.670;-0.528132;2.529495
7.680;-0.517113;2.522338
7.690;-0.504282;2.513753
7.700;-0.490662;2.503831
7.710;-0.477373;2.492955
7.720;-0.465528;2.481689
7.730;-0.456082;2.470622
7.740;-0.449667;2.460194
7.750;-0.446486;2.450564
7.760;-0.446339;2.441549
7.770;-0.448777;2.432663
7.780;-0.453311;2.423231
7.790;-0.459582;2.412578
7.800;-0.467436;2.400275
7.810;-0.476859;2.386339
7.820;-0.487818;2.371306
7.830;-0.500075;2.356095
7.840;-0.513050;2.341671
7.850;-0.525794;2.328664
7.860;-0.537082;2.317088
7.870;-0.545629;2.306334
7.880;-0.550398;2.295412
7.890;-0.550889;2.283336
7.900;-0.547309;2.269426
7.910;-0.540535;2.253428
7.920;-0.531865;2.235449
7.930;-0.522650;2.215819
7.940;-0.513955;2.194951
7.950;-0.506363;2.173251
7.960;-0.499972;2.151054
7.970;-0.494558;2.128576
7.980;-0.489804;2.105909
7.990;-0.485554;2.083092
8.000;-0.482014;2.060262
8.010;-0.479877;2.037779
8.020;-0.480346;2.016232
8.030;-0.485001;1.996271
8.040;-0.495513;1.978330
8.050;-0.513172;1.962338
8.060;-0.538329;1.947552
8.070;-0.569942;1.932591
8.080;-0.605476;1.915742
8.090;-0.641307;1.895468
8.100;-0.673518;1.870959
8.110;-0.698790;1.842472
8.120;-0.715036;1.811333
8.130;-0.721618;1.779569
