Time[s];COPx[cm];COPy[cm]
0.010;-0.512277;-0.397875
0.020;-0.471757;-0.403801
0.030;-0.432452;-0.408279
0.040;-0.395350;-0.410094
0.050;-0.360978;-0.408373
0.060;-0.329359;-0.402695
0.070;-0.300116;-0.393153
0.080;-0.272645;-0.380325
0.090;-0.246334;-0.365165
0.100;-0.220766;-0.348825
0.110;-0.195868;-0.332467
0.120;-0.171987;-0.317110
0.130;-0.149859;-0.303533
0.140;-0.130507;-0.292242
0.150;-0.115070;-0.283500
0.160;-0.104612;-0.277386
0.170;-0.099912;-0.273827
0.180;-0.101283;-0.272561
0.190;-0.108448;-0.273093
0.200;-0.120502;-0.274703
0.210;-0.135982;-0.276577
0.220;-0.153068;-0.278009
0.230;-0.169873;-0.278568
0.240;-0.184756;-0.278150
0.250;-0.196585;-0.276902
0.260;-0.204891;-0.275078
0.270;-0.209905;-0.272933
0.280;-0.212474;-0.270677
0.290;-0.213895;-0.268515
0.300;-0.215663;-0.266699
0.310;-0.219210;-0.265557
0.320;-0.225664;-0.265456
0.330;-0.235707;-0.266703
0.340;-0.249546;-0.269429
0.350;-0.266971;-0.273530
0.360;-0.287455;-0.278692
0.370;-0.310261;-0.284476
0.380;-0.334531;-0.290417
0.390;-0.359363;-0.296108
0.400;-0.383867;-0.301248
0.410;-0.407195;-0.305671
0.420;-0.428578;-0.309360
0.430;-0.447386;-0.312461
0.440;-0.463246;-0.315278
0.450;-0.476161;-0.318221
0.460;-0.486579;-0.321664
0.470;-0.495383;-0.325757
0.480;-0.503769;-0.330310
0.490;-0.513041;-0.334818
0.500;-0.524367;-0.338651
0.510;-0.538548;-0.341317
0.520;-0.555881;-0.342649
0.530;-0.576145;-0.342832
0.540;-0.598695;-0.342263
0.550;-0.622623;-0.341307
0.560;-0.646914;-0.340074
0.570;-0.670589;-0.338340
0.580;-0.692806;-0.335652
0.590;-0.712931;-0.331573
0.600;-0.730585;-0.325916
0.610;-0.745676;-0.318845
0.620;-0.758431;-0.310809
0.630;-0.769418;-0.302376
0.640;-0.779512;-0.294080
0.650;-0.789802;-0.286342
0.660;-0.801388;-0.279415
0.670;-0.815121;-0.273326
0.680;-0.831355;-0.267787
0.690;-0.849793;-0.262169
0.700;-0.869520;-0.255652
0.710;-0.889218;-0.247516
0.720;-0.907469;-0.237475
0.730;-0.923054;-0.225860
0.740;-0.935139;-0.213571
0.750;-0.943348;-0.201777
0.760;-0.947726;-0.191502
0.770;-0.948643;-0.183275
0.780;-0.946649;-0.177020
0.790;-0.942333;-0.172187
0.800;-0.936213;-0.168033
0.810;-0.928710;-0.163899
0.820;-0.920183;-0.159376
0.830;-0.910997;-0.154368
0.840;-0.901559;-0.149060
0.850;-0.892293;-0.143818
0.860;-0.883576;-0.139035
0.870;-0.875631;-0.134944
0.880;-0.868450;-0.131474
0.890;-0.861762;-0.128232
0.900;-0.855079;-0.124639
0.910;-0.847831;-0.120183
0.920;-0.839543;-0.114667
0.930;-0.829977;-0.108343
0.940;-0.819172;-0.101881
0.950;-0.807355;-0.096181
0.960;-0.794786;-0.092131
0.970;-0.781629;-0.090351
0.980;-0.767931;-0.091034
0.990;-0.753730;-0.093926
1.000;-0.739197;-0.098479
1.010;-0.724742;-0.104125
1.020;-0.710997;-0.110515
1.030;-0.698659;-0.117621
1.040;-0.688239;-0.125633
1.050;-0.679844;-0.134724
1.060;-0.673089;-0.144828
1.070;-0.667201;-0.155534
1.080;-0.661270;-0.166158
1.090;-0.654524;-0.175963
1.100;-0.646530;-0.184443
1.110;-0.637238;-0.191534
1.120;-0.626865;-0.197647
1.130;-0.615714;-0.203501
1.140;-0.603993;-0.209823
1.150;-0.591705;-0.217041
1.160;-0.578659;-0.225136
1.170;-0.564568;-0.233710
1.180;-0.549201;-0.242236
1.190;-0.532532;-0.250345
1.200;-0.514800;-0.257985
1.210;-0.496461;-0.265379
1.220;-0.478039;-0.272843
1.230;-0.459963;-0.280563
1.240;-0.442464;-0.288462
1.250;-0.425616;-0.296194
1.260;-0.409492;-0.303289
1.270;-0.394355;-0.309399
1.280;-0.380760;-0.314529
1.290;-0.369509;-0.319130
1.300;-0.361455;-0.323991
1.310;-0.357238;-0.329951
1.320;-0.357039;-0.337548
1.330;-0.360455;-0.346754
1.340;-0.366518;-0.356894
1.350;-0.373874;-0.366810
1.360;-0.381060;-0.375207
1.370;-0.386795;-0.381072
1.380;-0.390215;-0.383982
1.390;-0.390986;-0.384191
1.400;-0.389297;-0.382465
1.410;-0.385754;-0.379754
1.420;-0.381228;-0.376850
1.430;-0.376713;-0.374175
1.440;-0.373191;-0.371762
1.450;-0.371502;-0.369380
1.460;-0.372239;-0.366700
1.470;-0.375667;-0.363441
1.480;-0.381690;-0.359452
1.490;-0.389872;-0.354765
1.500;-0.399474;-0.349588
1.510;-0.409529;-0.344273
1.520;-0.418931;-0.339244
1.530;-0.426540;-0.334914
1.540;-0.431303;-0.331594
1.550;-0.432342;-0.329419
1.560;-0.429034;-0.328325
1.570;-0.421107;-0.328149
1.580;-0.408768;-0.328801
1.590;-0.392795;-0.330414
1.600;-0.374526;-0.333327
1.610;-0.355671;-0.337876
1.620;-0.337979;-0.344114
1.630;-0.322849;-0.351652
1.640;-0.311018;-0.359732
1.650;-0.302410;-0.367491
1.660;-0.296211;-0.374263
1.670;-0.291131;-0.379743
1.680;-0.285798;-0.383966
1.690;-0.279151;-0.387150
1.700;-0.270726;-0.389509
1.710;-0.260737;-0.391130
1.720;-0.249959;-0.391970
1.730;-0.239474;-0.391954
1.740;-0.230388;-0.391080
1.750;-0.223614;-0.389460
1.760;-0.219748;-0.387266
1.770;-0.219051;-0.384629
1.780;-0.221490;-0.381563
1.790;-0.226821;-0.377956
1.800;-0.234663;-0.373628
1.810;-0.244564;-0.368438
1.820;-0.256009;-0.362393
1.830;-0.268400;-0.355688
1.840;-0.281053;-0.348675
1.850;-0.293267;-0.341775
1.860;-0.304438;-0.335378
1.870;-0.314179;-0.329765
1.880;-0.322381;-0.325028
1.890;-0.329204;-0.321026
1.900;-0.334988;-0.317395
1.910;-0.340145;-0.313631
1.920;-0.345046;-0.309218
1.930;-0.349987;-0.303736
1.940;-0.355190;-0.296901
1.950;-0.360831;-0.288567
1.960;-0.367032;-0.278688
1.970;-0.373838;-0.267289
1.980;-0.381206;-0.254442
1.990;-0.389026;-0.240288
2.000;-0.397143;-0.225079
2.010;-0.405370;-0.209217
2.020;-0.413454;-0.193241
2.030;-0.421054;-0.177738
2.040;-0.427774;-0.163192
2.050;-0.433256;-0.149860
2.060;-0.437295;-0.137735
2.070;-0.439885;-0.126626
2.080;-0.441172;-0.116273
2.090;-0.441354;-0.106428
2.100;-0.440591;-0.096883
2.110;-0.438976;-0.087484
2.120;-0.436548;-0.078165
2.130;-0.433322;-0.068988
2.140;-0.429319;-0.060153
2.150;-0.424608;-0.051939
2.160;-0.419362;-0.044605
2.170;-0.413915;-0.038304
2.180;-0.408749;-0.033057
2.190;-0.404390;-0.028803
2.200;-0.401232;-0.025465
2.210;-0.399343;-0.022993
2.220;-0.398346;-0.021342
2.230;-0.397441;-0.020408
2.240;-0.395535;-0.019982
2.250;-0.391433;-0.019769
2.260;-0.384014;-0.019489
2.270;-0.372390;-0.019001
2.280;-0.356068;-0.018391
2.290;-0.335139;-0.017981
2.300;-0.310444;-0.018251
2.310;-0.283627;-0.019697
2.320;-0.256976;-0.022669
2.330;-0.233029;-0.027236
2.340;-0.214020;-0.033108
2.350;-0.201350;-0.039645
2.360;-0.195273;-0.045974
2.370;-0.194890;-0.051222
2.380;-0.198461;-0.054804
2.390;-0.203901;-0.056641
2.400;-0.209311;-0.057212
2.410;-0.213413;-0.057379
2.420;-0.215763;-0.058082
2.430;-0.216716;-0.060024
2.440;-0.217171;-0.063479
2.450;-0.218188;-0.068276
2.460;-0.220645;-0.073934
2.470;-0.225060;-0.079864
2.480;-0.231605;-0.085554
2.490;-0.240226;-0.090660
2.500;-0.250748;-0.095010
2.510;-0.262886;-0.098550
2.520;-0.276209;-0.101311
2.530;-0.290111;-0.103415
2.540;-0.303888;-0.105106
2.550;-0.316890;-0.106739
2.560;-0.328697;-0.108707
2.570;-0.339223;-0.111320
2.580;-0.348707;-0.114690
2.590;-0.357629;-0.118673
2.600;-0.366575;-0.122881
2.610;-0.376118;-0.126776
2.620;-0.386704;-0.129842
2.630;-0.398595;-0.131765
2.640;-0.411884;-0.132534
2.650;-0.426562;-0.132421
2.660;-0.442593;-0.131866
2.670;-0.459932;-0.131364
2.680;-0.478480;-0.131386
2.690;-0.498022;-0.132322
2.700;-0.518207;-0.134424
2.710;-0.538608;-0.137771
2.720;-0.558823;-0.142257
2.730;-0.578581;-0.147610
2.740;-0.597784;-0.153416
2.750;-0.616505;-0.159127
2.760;-0.634930;-0.164111
2.770;-0.653284;-0.167753
2.780;-0.671735;-0.169616
2.790;-0.690295;-0.169589
2.800;-0.708769;-0.167932
2.810;-0.726769;-0.165187
2.820;-0.743801;-0.161963
2.830;-0.759378;-0.158695
2.840;-0.773120;-0.155504
2.850;-0.784821;-0.152224
2.860;-0.794463;-0.148580
2.870;-0.802195;-0.144392
2.880;-0.808278;-0.139725
2.890;-0.813027;-0.134894
2.900;-0.816747;-0.130385
2.910;-0.819688;-0.126714
2.920;-0.822014;-0.124285
2.930;-0.823806;-0.123270
2.940;-0.825060;-0.123548
2.950;-0.825690;-0.124745
2.960;-0.825544;-0.126339
2.970;-0.824428;-0.127826
2.980;-0.822133;-0.128857
2.990;-0.818425;-0.129309
3.000;-0.813017;-0.129256
3.010;-0.805568;-0.128898
3.020;-0.795782;-0.128484
3.030;-0.783588;-0.128282
3.040;-0.769303;-0.128568
3.050;-0.753667;-0.129621
3.060;-0.737708;-0.131708
3.070;-0.722500;-0.135044
3.080;-0.708945;-0.139738
3.090;-0.697644;-0.145742
3.100;-0.688876;-0.152842
3.110;-0.682648;-0.160698
3.120;-0.678764;-0.168899
3.130;-0.676900;-0.177020
3.140;-0.676678;-0.184686
3.150;-0.677698;-0.191644
3.160;-0.679548;-0.197824
3.170;-0.681785;-0.203355
3.180;-0.683913;-0.208513
3.190;-0.685397;-0.213604
3.200;-0.685718;-0.218847
3.210;-0.684489;-0.224276
3.220;-0.681578;-0.229694
3.230;-0.677190;-0.234677
3.240;-0.671873;-0.238650
3.250;-0.666436;-0.241038
3.260;-0.661770;-0.241445
3.270;-0.658643;-0.239778
3.280;-0.657524;-0.236264
3.290;-0.658513;-0.231364
3.300;-0.661384;-0.225628
3.310;-0.665694;-0.219569
3.320;-0.670921;-0.213599
3.330;-0.676581;-0.207989
3.340;-0.682292;-0.202850
3.350;-0.687777;-0.198131
3.360;-0.692799;-0.193639
3.370;-0.697101;-0.189112
3.380;-0.700390;-0.184306
3.390;-0.702423;-0.179080
3.400;-0.703143;-0.173455
3.410;-0.702806;-0.167640
3.420;-0.702007;-0.161998
3.430;-0.701590;-0.156968
3.440;-0.702453;-0.152945
3.450;-0.705334;-0.150171
3.460;-0.710624;-0.148675
3.470;-0.718280;-0.148258
3.480;-0.727817;-0.148551
3.490;-0.738382;-0.149108
3.500;-0.748880;-0.149535
3.510;-0.758120;-0.149594
3.520;-0.764980;-0.149227
3.530;-0.768573;-0.148507
3.540;-0.768405;-0.147537
3.550;-0.764507;-0.146345
3.560;-0.757456;-0.144789
3.570;-0.748244;-0.142550
3.580;-0.738000;-0.139216
3.590;-0.727695;-0.134478
3.600;-0.717936;-0.128375
3.610;-0.708963;-0.121440
3.620;-0.700789;-0.114640
3.630;-0.693409;-0.109096
3.640;-0.686946;-0.105712
3.650;-0.681644;-0.104874
3.660;-0.677756;-0.106343
3.670;-0.675386;-0.109367
3.680;-0.674390;-0.112952
3.690;-0.674359;-0.116198
3.700;-0.674665;-0.118540
3.710;-0.674545;-0.119843
3.720;-0.673222;-0.120316
3.730;-0.670065;-0.120329
3.740;-0.664739;-0.120195
3.750;-0.657318;-0.120028
3.760;-0.648309;-0.119721
3.770;-0.638565;-0.119060
3.780;-0.629110;-0.117906
3.790;-0.620894;-0.116354
3.800;-0.614565;-0.114778
3.810;-0.610313;-0.113737
3.820;-0.607850;-0.113779
3.830;-0.606533;-0.115229
3.840;-0.605581;-0.118039
3.850;-0.604335;-0.121752
3.860;-0.602453;-0.125590
3.870;-0.599973;-0.128672
3.880;-0.597235;-0.130292
3.890;-0.594702;-0.130162
3.900;-0.592764;-0.128517
3.910;-0.591583;-0.126031
3.920;-0.591070;-0.123582
3.930;-0.590980;-0.121970
3.940;-0.591083;-0.121696
3.950;-0.591316;-0.122873
3.960;-0.591855;-0.125289
3.970;-0.593093;-0.128573
3.980;-0.595569;-0.132374
3.990;-0.599867;-0.136503
4.000;-0.606530;-0.140974
4.010;-0.615970;-0.145953
4.020;-0.628390;-0.151651
4.030;-0.643717;-0.158199
4.040;-0.661577;-0.165560
4.050;-0.681303;-0.173495
4.060;-0.702003;-0.181610
4.070;-0.722676;-0.189471
4.080;-0.742393;-0.196759
4.090;-0.760476;-0.203394
4.100;-0.776627;-0.209574
4.110;-0.790937;-0.215710
4.120;-0.803768;-0.222284
4.130;-0.815566;-0.229666
4.140;-0.826673;-0.237937
4.150;-0.837191;-0.246781
4.160;-0.846942;-0.255493
4.170;-0.855539;-0.263130
4.180;-0.862536;-0.268792
4.190;-0.867610;-0.271944
4.200;-0.870709;-0.272641
4.210;-0.872098;-0.271555
4.220;-0.872278;-0.269759
4.230;-0.871821;-0.268359
4.240;-0.871216;-0.268147
4.250;-0.870781;-0.269396
4.260;-0.870696;-0.271841
4.270;-0.871117;-0.274822
4.280;-0.872288;-0.277525
4.290;-0.874550;-0.279236
4.300;-0.878197;-0.279535
4.310;-0.883261;-0.278371
4.320;-0.889360;-0.276020
4.330;-0.895745;-0.272955
4.340;-0.901524;-0.269690
4.350;-0.905967;-0.266632
4.360;-0.908750;-0.263988
4.370;-0.910026;-0.261704
4.380;-0.910313;-0.259469
4.390;-0.910262;-0.256809
4.400;-0.910420;-0.253273
4.410;-0.911077;-0.248670
4.420;-0.912247;-0.243200
4.430;-0.913768;-0.237435
4.440;-0.915442;-0.232129
4.450;-0.917137;-0.227978
4.460;-0.918810;-0.225434
4.470;-0.920454;-0.224610
4.480;-0.922037;-0.225290
4.490;-0.923504;-0.227021
4.500;-0.924852;-0.229261
4.510;-0.926224;-0.231567
4.520;-0.927977;-0.233744
4.530;-0.930646;-0.235916
4.540;-0.934834;-0.238428
4.550;-0.941048;-0.241630
4.560;-0.949535;-0.245655
4.570;-0.960186;-0.250307
4.580;-0.972536;-0.255122
4.590;-0.985864;-0.259568
4.600;-0.999364;-0.263279
4.610;-1.012319;-0.266227
4.620;-1.024237;-0.268731
4.630;-1.034879;-0.271289
4.640;-1.044225;-0.274343
4.650;-1.052378;-0.278104
4.660;-1.059501;-0.282522
4.670;-1.065800;-0.287379
4.680;-1.071534;-0.292428
4.690;-1.077023;-0.297489
4.700;-1.082604;-0.302502
4.710;-1.088563;-0.307492
4.720;-1.095063;-0.312485
4.730;-1.102109;-0.317390
4.740;-1.109573;-0.321915
4.750;-1.117243;-0.325561
4.760;-1.124873;-0.327743
4.770;-1.132182;-0.328013
4.780;-1.138815;-0.326290
4.790;-1.144335;-0.322981
4.800;-1.148284;-0.318894
4.810;-1.150307;-0.314965
4.820;-1.150299;-0.311926
4.830;-1.148514;-0.310071
4.840;-1.145567;-0.309221
4.850;-1.142291;-0.308878
4.860;-1.139456;-0.308466
4.870;-1.137473;-0.307565
4.880;-1.136237;-0.306040
4.890;-1.135203;-0.304069
4.900;-1.133638;-0.302033
4.910;-1.130931;-0.300323
4.920;-1.126793;-0.299134
4.930;-1.121280;-0.298361
4.940;-1.114705;-0.297656
4.950;-1.107487;-0.296603
4.960;-1.100036;-0.294941
4.970;-1.092683;-0.292741
4.980;-1.085671;-0.290459
4.990;-1.079180;-0.288831
5.000;-1.073389;-0.288629
5.010;-1.068514;-0.290393
5.020;-1.064828;-0.294239
5.030;-1.062631;-0.299826
5.040;-1.062202;-0.306449
5.050;-1.063739;-0.313241
5.060;-1.067305;-0.319402
5.070;-1.072806;-0.324413
5.080;-1.080017;-0.328177
5.090;-1.088628;-0.331007
5.100;-1.098274;-0.333487
5.110;-1.108563;-0.336248
5.120;-1.119090;-0.339764
5.130;-1.129491;-0.344238
5.140;-1.139534;-0.349580
5.150;-1.149220;-0.355447
5.160;-1.158841;-0.361343
5.170;-1.168926;-0.366756
5.180;-1.180097;-0.371317
5.190;-1.192866;-0.374910
5.200;-1.207480;-0.377690
5.210;-1.223852;-0.380020
5.220;-1.241590;-0.382355
5.230;-1.260102;-0.385137
5.240;-1.278685;-0.388694
5.250;-1.296589;-0.393181
5.260;-1.313067;-0.398569
5.270;-1.327447;-0.404668
5.280;-1.339228;-0.411190
5.290;-1.348181;-0.417809
5.300;-1.354409;-0.424207
5.310;-1.358324;-0.430084
5.320;-1.360557;-0.435175
5.330;-1.361825;-0.439278
5.340;-1.362801;-0.442309
5.350;-1.363990;-0.444350
5.360;-1.365625;-0.445645
5.370;-1.367613;-0.446537
5.380;-1.369581;-0.447373
5.390;-1.371010;-0.448417
5.400;-1.371436;-0.449798
5.410;-1.370605;-0.451507
5.420;-1.368537;-0.453436
5.430;-1.365468;-0.455454
5.440;-1.361730;-0.457450
5.450;-1.357621;-0.459351
5.460;-1.353350;-0.461097
5.470;-1.349052;-0.462620
5.480;-1.344863;-0.463825
5.490;-1.340998;-0.464624
5.500;-1.337770;-0.465002
5.510;-1.335511;-0.465096
5.520;-1.334450;-0.465196
5.530;-1.334604;-0.465648
5.540;-1.335750;-0.466667
5.550;-1.337479;-0.468207
5.560;-1.339301;-0.469954
5.570;-1.340740;-0.471482
5.580;-1.341383;-0.472455
5.590;-1.340860;-0.472778
5.600;-1.338771;-0.472615
5.610;-1.334633;-0.472260
5.620;-1.327927;-0.471941
5.630;-1.318275;-0.471632
5.640;-1.305678;-0.470996
5.650;-1.290689;-0.469503
5.660;-1.274400;-0.466697
5.670;-1.258220;-0.462459
5.680;-1.243510;-0.457138
5.690;-1.231212;-0.451446
5.700;-1.221586;-0.446155
5.710;-1.214141;-0.441755
5.720;-1.207799;-0.438237
5.730;-1.201225;-0.435141
5.740;-1.193186;-0.431799
5.750;-1.182821;-0.427640
5.760;-1.169732;-0.422388
5.770;-1.153918;-0.416094
5.780;-1.135626;-0.409035
5.790;-1.115194;-0.401553
5.800;-1.092949;-0.393922
5.810;-1.069158;-0.386294
5.820;-1.044072;-0.378744
5.830;-1.018019;-0.371374
5.840;-0.991515;-0.364415
5.850;-0.965316;-0.358234
5.860;-0.940351;-0.353239
5.870;-0.917571;-0.349716
5.880;-0.897761;-0.347711
5.890;-0.881414;-0.347030
5.900;-0.868673;-0.347350
5.910;-0.859360;-0.348359
5.920;-0.853028;-0.349843
5.930;-0.849049;-0.351682
5.940;-0.846689;-0.353818
5.950;-0.845191;-0.356223
5.960;-0.843835;-0.358904
5.970;-0.842006;-0.361893
5.980;-0.839274;-0.365197
5.990;-0.835461;-0.368725
6.000;-0.830662;-0.372258
6.010;-0.825170;-0.375518
6.020;-0.819347;-0.378306
6.030;-0.813475;-0.380620
6.040;-0.807703;-0.382665
6.050;-0.802062;-0.384754
6.060;-0.796534;-0.387193
6.070;-0.791090;-0.390199
6.080;-0.785706;-0.393883
6.090;-0.780374;-0.398250
6.100;-0.775120;-0.403195
6.110;-0.770025;-0.408519
6.120;-0.765191;-0.413959
6.130;-0.760689;-0.419245
6.140;-0.756509;-0.424160
6.150;-0.752553;-0.428593
6.160;-0.748660;-0.432593
6.170;-0.744661;-0.436356
6.180;-0.740407;-0.440156
6.190;-0.735780;-0.444202
6.200;-0.730656;-0.448510
6.210;-0.724850;-0.452859
6.220;-0.718093;-0.456828
6.230;-0.710079;-0.459917
6.240;-0.700593;-0.461669
6.250;-0.689661;-0.461787
6.260;-0.677652;-0.460235
6.270;-0.665290;-0.457283
6.280;-0.653549;-0.453455
6.290;-0.643484;-0.449369
6.300;-0.636033;-0.445538
6.310;-0.631848;-0.442218
6.320;-0.631205;-0.439377
6.330;-0.634003;-0.436780
6.340;-0.639829;-0.434120
6.350;-0.648048;-0.431168
6.360;-0.657889;-0.427847
6.370;-0.668517;-0.424246
6.380;-0.679130;-0.420557
6.390;-0.689084;-0.416967
6.400;-0.698032;-0.413568
6.410;-0.705993;-0.410287
6.420;-0.713337;-0.406888
6.430;-0.720672;-0.403032
6.440;-0.728717;-0.398403
6.450;-0.738182;-0.392853
6.460;-0.749670;-0.386508
6.470;-0.763614;-0.379768
6.480;-0.780222;-0.373176
6.490;-0.799447;-0.367203
6.500;-0.820959;-0.362053
6.510;-0.844117;-0.357599
6.520;-0.867996;-0.353518
6.530;-0.891496;-0.349535
6.540;-0.913526;-0.345611
6.550;-0.933186;-0.341932
6.560;-0.949886;-0.338753
6.570;-0.963366;-0.336211
6.580;-0.973647;-0.334212
6.590;-0.980970;-0.332420
6.600;-0.985756;-0.330325
6.610;-0.988600;-0.327379
6.620;-0.990269;-0.323160
6.630;-0.991669;-0.317484
6.640;-0.993710;-0.310402
6.650;-0.997102;-0.302091
6.660;-1.002131;-0.292741
6.670;-1.008537;-0.282508
6.680;-1.015540;-0.271557
6.690;-1.022046;-0.260100
6.700;-1.026960;-0.248367
6.710;-1.029510;-0.236536
6.720;-1.029456;-0.224688
6.730;-1.027115;-0.212820
6.740;-1.023193;-0.200902
6.750;-1.018507;-0.188948
6.760;-1.013708;-0.177065
6.770;-1.009093;-0.165451
6.780;-1.004554;-0.154339
6.790;-0.999628;-0.143913
6.800;-0.993644;-0.134247
6.810;-0.985902;-0.125301
6.820;-0.975874;-0.116960
6.830;-0.963345;-0.109102
6.840;-0.948498;-0.101684
6.850;-0.931920;-0.094786
6.860;-0.914533;-0.088585
6.870;-0.897468;-0.083229
6.880;-0.881875;-0.078693
6.890;-0.868699;-0.074723
6.900;-0.858477;-0.070919
6.910;-0.851245;-0.066893
6.920;-0.846599;-0.062376
6.930;-0.843882;-0.057234
6.940;-0.842415;-0.051412
6.950;-0.841688;-0.044899
6.960;-0.841434;-0.037722
6.970;-0.841593;-0.029956
6.980;-0.842209;-0.021714
6.990;-0.843337;-0.013134
7.000;-0.844993;-0.004366
7.010;-0.847149;0.004435
7.020;-0.849713;0.013119
7.030;-0.852515;0.021546
7.040;-0.855313;0.029560
7.050;-0.857856;0.036939
7.060;-0.859984;0.043352
7.070;-0.861697;0.048407
7.080;-0.863144;0.051791
7.090;-0.864544;0.053449
7.100;-0.866059;0.053681
7.110;-0.867697;0.053098
7.120;-0.869277;0.052445
7.130;-0.870451;0.052378
7.140;-0.870780;0.053265
7.150;-0.869832;0.055095
7.160;-0.867267;0.057526
7.170;-0.862929;0.060065
7.180;-0.856926;0.062277
7.190;-0.849682;0.063937
7.200;-0.841878;0.065040
7.210;-0.834289;0.065704
7.220;-0.827566;0.066045
7.230;-0.822047;0.066101
7.240;-0.817684;0.065844
7.250;-0.814099;0.065237
7.260;-0.810730;0.064294
7.270;-0.807027;0.063067
7.280;-0.802629;0.061614
7.290;-0.797471;0.059946
7.300;-0.791792;0.058034
7.310;-0.786065;0.055869
7.320;-0.780850;0.053548
7.330;-0.776650;0.051324
7.340;-0.773790;0.049558
7.350;-0.772355;0.048582
7.360;-0.772196;0.048532
7.370;-0.773011;0.049204
7.380;-0.774473;0.050056
7.390;-0.776340;0.050372
7.400;-0.778518;0.049555
7.410;-0.781056;0.047412
7.420;-0.784094;0.044285
7.430;-0.787834;0.040976
7.440;-0.792519;0.038477
7.450;-0.798415;0.037630
7.460;-0.805779;0.038829
7.470;-0.814812;0.041914
7.480;-0.825603;0.046280
7.490;-0.838084;0.051145
7.500;-0.851990;0.055857
7.510;-0.866836;0.060115
7.520;-0.881925;0.064036
7.530;-0.896410;0.068058
7.540;-0.909432;0.072711
7.550;-0.920309;0.078351
7.560;-0.928748;0.084956
7.570;-0.934992;0.092106
7.580;-0.939852;0.099145
7.590;-0.944555;0.105452
7.600;-0.950442;0.110668
7.610;-0.958581;0.114737
7.620;-0.969453;0.117796
7.630;-0.982825;0.119980
7.640;-0.997867;0.121321
7.650;-1.013464;0.121771
7.660;-1.028589;0.121321
7.670;-1.042571;0.120122
7.680;-1.055168;0.118518
7.690;-1.066457;0.116983
7.700;-1.076650;0.116000
