Time[s];COPx[cm];COPy[cm]
0.010;-1.948438;1.140694
0.020;-1.987690;1.146008
0.030;-2.023589;1.151675
0.040;-2.053550;1.158084
0.050;-2.076354;1.165732
0.060;-2.092312;1.175114
0.070;-2.102995;1.186554
0.080;-2.110647;1.200055
0.090;-2.117507;1.215244
0.100;-2.125235;1.231423
0.110;-2.134598;1.247720
0.120;-2.145447;1.263259
0.130;-2.156921;1.277296
0.140;-2.167772;1.289266
0.150;-2.176703;1.298770
0.160;-2.182625;1.305532
0.170;-2.184814;1.309378
0.180;-2.182991;1.310268
0.190;-2.177326;1.308357
0.200;-2.168374;1.304058
0.210;-2.156909;1.298046
0.220;-2.143667;1.291171
0.230;-2.129116;1.284330
0.240;-2.113374;1.278350
0.250;-2.096329;1.273926
0.260;-2.077922;1.271604
0.270;-2.058430;1.271737
0.280;-2.038602;1.274405
0.290;-2.019528;1.279334
0.300;-2.002237;1.285901
0.310;-1.987181;1.293263
0.320;-1.973840;1.300583
0.330;-1.960662;1.307246
0.340;-1.945437;1.312985
0.350;-1.925972;1.317870
0.360;-1.900823;1.322177
0.370;-1.869785;1.326233
0.380;-1.833962;1.330280
0.390;-1.795414;1.334430
0.400;-1.756549;1.338671
0.410;-1.719503;1.342907
0.420;-1.685724;1.347017
0.430;-1.655889;1.350892
0.440;-1.630104;1.354444
0.450;-1.608249;1.357570
0.460;-1.590311;1.360090
0.470;-1.576528;1.361739
0.480;-1.567302;1.362232
0.490;-1.562908;1.361377
0.500;-1.563154;1.359185
0.510;-1.567134;1.355937
0.520;-1.573199;1.352203
0.530;-1.579150;1.348766
0.540;-1.582606;1.346475
0.550;-1.581428;1.346030
0.560;-1.574112;1.347791
0.570;-1.560078;1.351686
0.580;-1.539792;1.357246
0.590;-1.514705;1.363728
0.600;-1.486986;1.370283
0.610;-1.459125;1.376112
0.620;-1.433505;1.380625
0.630;-1.412055;1.383537
0.640;-1.396041;1.384896
0.650;-1.385987;1.384998
0.660;-1.381710;1.384250
0.670;-1.382457;1.383034
0.680;-1.387098;1.381612
0.690;-1.394365;1.380070
0.700;-1.403084;1.378306
0.710;-1.412377;1.376057
0.720;-1.421790;1.372998
0.730;-1.431317;1.368911
0.740;-1.441317;1.363827
0.750;-1.452358;1.358074
0.760;-1.465039;1.352179
0.770;-1.479824;1.346680
0.780;-1.496908;1.341972
0.790;-1.516144;1.338235
0.800;-1.537070;1.335463
0.810;-1.559070;1.333523
0.820;-1.581641;1.332216
0.830;-1.604661;1.331303
0.840;-1.628550;1.330523
0.850;-1.654265;1.329615
0.860;-1.683143;1.328329
0.870;-1.716630;1.326435
0.880;-1.755956;1.323723
0.890;-1.801797;1.320037
0.900;-1.853972;1.315350
0.910;-1.911226;1.309860
0.920;-1.971193;1.304017
0.930;-2.030588;1.298459
0.940;-2.085656;1.293856
0.950;-2.132771;1.290748
0.960;-2.169063;1.289404
0.970;-2.192887;1.289781
0.980;-2.204049;1.291575
0.990;-2.203734;1.294365
1.000;-2.194206;1.297788
1.010;-2.178362;1.301634
1.020;-2.159263;1.305835
1.030;-2.139731;1.310363
1.040;-2.122066;1.315128
1.050;-2.107912;1.319953
1.060;-2.098232;1.324621
1.070;-2.093349;1.328949
1.080;-2.092973;1.332832
1.090;-2.096211;1.336274
1.100;-2.101540;1.339393
1.110;-2.106852;1.342413
1.120;-2.109653;1.345638
1.130;-2.107472;1.349388
1.140;-2.098428;1.353935
1.150;-2.081731;1.359433
1.160;-2.057909;1.365875
1.170;-2.028638;1.373101
1.180;-1.996247;1.380853
1.190;-1.963134;1.388854
1.200;-1.931326;1.396871
1.210;-1.902305;1.404742
1.220;-1.877062;1.412354
1.230;-1.856219;1.419585
1.240;-1.840074;1.426277
1.250;-1.828475;1.432248
1.260;-1.820613;1.437366
1.270;-1.814877;1.441623
1.280;-1.808977;1.445150
1.290;-1.800389;1.448153
1.300;-1.787014;1.450818
1.310;-1.767823;1.453232
1.320;-1.743215;1.455360
1.330;-1.714952;1.457088
1.340;-1.685684;1.458281
1.350;-1.658237;1.458858
1.360;-1.634922;1.458838
1.370;-1.617100;1.458358
1.380;-1.605084;1.457650
1.390;-1.598367;1.456968
1.400;-1.595991;1.456518
1.410;-1.596923;1.456412
1.420;-1.600306;1.456699
1.430;-1.605570;1.457455
1.440;-1.612396;1.458866
1.450;-1.620596;1.461244
1.460;-1.629959;1.464940
1.470;-1.640145;1.470208
1.480;-1.650661;1.477086
1.490;-1.660959;1.485347
1.500;-1.670597;1.494532
1.510;-1.679406;1.504054
1.520;-1.687580;1.513321
1.530;-1.695627;1.521872
1.540;-1.704237;1.529473
1.550;-1.714114;1.536148
1.560;-1.725857;1.542099
1.570;-1.739904;1.547550
1.580;-1.756530;1.552590
1.590;-1.775862;1.557127
1.600;-1.797888;1.560969
1.610;-1.822477;1.563966
1.620;-1.849401;1.566093
1.630;-1.878392;1.567391
1.640;-1.909168;1.567850
1.650;-1.941445;1.567326
1.660;-1.974912;1.565578
1.670;-2.009202;1.562399
1.680;-2.043886;1.557742
1.690;-2.078502;1.551778
1.700;-2.112590;1.544867
1.710;-2.145710;1.537473
1.720;-2.177423;1.530067
1.730;-2.207244;1.523090
1.740;-2.234613;1.516961
1.750;-2.258896;1.512101
1.760;-2.279441;1.508920
1.770;-2.295675;1.507739
1.780;-2.307241;1.508701
1.790;-2.314138;1.511746
1.800;-2.316851;1.516670
1.810;-2.316384;1.523231
1.820;-2.314166;1.531223
1.830;-2.311804;1.540479
1.840;-2.310756;1.550821
1.850;-2.312031;1.562012
1.860;-2.316035;1.573726
1.870;-2.322574;1.585546
1.880;-2.330969;1.596981
1.890;-2.340196;1.607488
1.900;-2.348992;1.616523
1.910;-2.355958;1.623634
1.920;-2.359656;1.628582
1.930;-2.358732;1.631440
1.940;-2.352085;1.632617
1.950;-2.339062;1.632782
1.960;-2.319644;1.632702
1.970;-2.294554;1.633055
1.980;-2.265221;1.634298
1.990;-2.233569;1.636647
2.000;-2.201682;1.640145
2.010;-2.171448;1.644751
2.020;-2.144313;1.650384
2.030;-2.121175;1.656929
2.040;-2.102401;1.664215
2.050;-2.087865;1.672026
2.060;-2.076937;1.680099
2.070;-2.068450;1.688116
2.080;-2.060711;1.695685
2.090;-2.051664;1.702380
2.100;-2.039219;1.707844
2.110;-2.021713;1.711932
2.120;-1.998355;1.714813
2.130;-1.969492;1.716953
2.140;-1.936578;1.718996
2.150;-1.901844;1.721577
2.160;-1.867808;1.725158
2.170;-1.836775;1.729947
2.180;-1.810452;1.735906
2.190;-1.789775;1.742826
2.200;-1.774921;1.750413
2.210;-1.765476;1.758371
2.220;-1.760681;1.766455
2.230;-1.759684;1.774500
2.240;-1.761715;1.782418
2.250;-1.766162;1.790202
2.260;-1.772571;1.797934
2.270;-1.780595;1.805790
2.280;-1.789963;1.813992
2.290;-1.800466;1.822721
2.300;-1.811966;1.832026
2.310;-1.824391;1.841798
2.320;-1.837713;1.851797
2.330;-1.851903;1.861728
2.340;-1.866881;1.871285
2.350;-1.882503;1.880193
2.360;-1.898610;1.888255
2.370;-1.915131;1.895439
2.380;-1.932191;1.901973
2.390;-1.950177;1.908387
2.400;-1.969740;1.915467
2.410;-1.991730;1.924076
2.420;-2.017075;1.934907
2.430;-2.046595;1.948238
2.440;-2.080760;1.963813
2.450;-2.119442;1.980877
2.460;-2.161758;1.998355
2.470;-2.206070;2.015108
2.480;-2.250193;2.030187
2.490;-2.291773;2.043023
2.500;-2.328732;2.053502
2.510;-2.359664;2.061901
2.520;-2.384034;2.068754
2.530;-2.402141;2.074687
2.540;-2.414874;2.080290
2.550;-2.423395;2.086006
2.560;-2.428895;2.092040
2.570;-2.432468;2.098280
2.580;-2.435075;2.104277
2.590;-2.437501;2.109310
2.600;-2.440242;2.112532
2.610;-2.443373;2.113158
2.620;-2.446463;2.110654
2.630;-2.448612;2.104905
2.640;-2.448615;2.096314
2.650;-2.445196;2.085788
2.660;-2.437252;2.074572
2.670;-2.424055;2.063960
2.680;-2.405378;2.054965
2.690;-2.381557;2.048117
2.700;-2.353466;2.043451
2.710;-2.322411;2.040696
2.720;-2.289936;2.039494
2.730;-2.257602;2.039526
2.740;-2.226761;2.040484
2.750;-2.198389;2.041985
2.760;-2.172981;2.043519
2.770;-2.150521;2.044489
2.780;-2.130531;2.044326
2.790;-2.112174;2.042622
2.800;-2.094390;2.039224
2.810;-2.076035;2.034235
2.820;-2.056006;2.027927
2.830;-2.033368;2.020601
2.840;-2.007480;2.012472
2.850;-1.978121;2.003641
2.860;-1.945566;1.994174
2.870;-1.910549;1.984227
2.880;-1.874118;1.974139
2.890;-1.837395;1.964418
2.900;-1.801367;1.955611
2.910;-1.766785;1.948113
2.920;-1.734192;1.942021
2.930;-1.704051;1.937104
2.940;-1.676865;1.932916
2.950;-1.653230;1.928968
2.960;-1.633768;1.924897
2.970;-1.618980;1.920531
2.980;-1.609065;1.915848
2.990;-1.603820;1.910825
3.000;-1.602620;1.905302
3.010;-1.604516;1.898950
3.020;-1.608402;1.891401
3.030;-1.613222;1.882486
3.040;-1.618141;1.872406
3.050;-1.622622;1.861726
3.060;-1.626412;1.851163
3.070;-1.629453;1.841280
3.080;-1.631807;1.832252
3.090;-1.633607;1.823822
3.100;-1.635060;1.815485
3.110;-1.636473;1.806786
3.120;-1.638280;1.797552
3.130;-1.641018;1.787954
3.140;-1.645241;1.778387
3.150;-1.651412;1.769287
3.160;-1.659787;1.760937
3.170;-1.670351;1.753330
3.180;-1.682826;1.746123
3.190;-1.696766;1.738706
3.200;-1.711737;1.730406
3.210;-1.727481;1.720739
3.220;-1.743988;1.709611
3.230;-1.761385;1.697360
3.240;-1.779699;1.684608
3.250;-1.798621;1.671965
3.260;-1.817414;1.659753
3.270;-1.835047;1.647877
3.280;-1.850482;1.635926
3.290;-1.862992;1.623425
3.300;-1.872389;1.610139
3.310;-1.879064;1.596247
3.320;-1.883885;1.582325
3.330;-1.887999;1.569119
3.340;-1.892616;1.557231
3.350;-1.898797;1.546872
3.360;-1.907237;1.537819
3.370;-1.918064;1.529570
3.380;-1.930678;1.521629
3.390;-1.943743;1.513731
3.400;-1.955369;1.505923
3.410;-1.963486;1.498487
3.420;-1.966333;1.491766
3.430;-1.962902;1.485993
3.440;-1.953209;1.481194
3.450;-1.938301;1.477178
3.460;-1.920006;1.473605
3.470;-1.900510;1.470098
3.480;-1.881904;1.466358
3.490;-1.865833;1.462262
3.500;-1.853334;1.457894
3.510;-1.844828;1.453463
3.520;-1.840207;1.449177
3.530;-1.838950;1.445133
3.540;-1.840279;1.441316
3.550;-1.843321;1.437692
3.560;-1.847263;1.434299
3.570;-1.851422;1.431296
3.580;-1.855233;1.428926
3.590;-1.858185;1.427446
3.600;-1.859800;1.427076
3.610;-1.859706;1.428015
3.620;-1.857745;1.430510
3.630;-1.854064;1.434916
3.640;-1.849092;1.441668
3.650;-1.843410;1.451145
3.660;-1.837570;1.463507
3.670;-1.831954;1.478589
3.680;-1.826728;1.495927
3.690;-1.821903;1.514878
3.700;-1.817457;1.534771
3.710;-1.813455;1.555007
3.720;-1.810098;1.575090
3.730;-1.807688;1.594596
3.740;-1.806538;1.613117
3.750;-1.806859;1.630195
3.760;-1.808711;1.645288
3.770;-1.812026;1.657803
3.780;-1.816718;1.667197
3.790;-1.822795;1.673117
3.800;-1.830391;1.675496
3.810;-1.839686;1.674557
3.820;-1.850761;1.670697
3.830;-1.863492;1.664336
3.840;-1.877541;1.655846
3.850;-1.892455;1.645610
3.860;-1.907787;1.634152
3.870;-1.923159;1.622198
3.880;-1.938273;1.610601
3.890;-1.952908;1.600161
3.900;-1.966947;1.591430
3.910;-1.980431;1.584589
3.920;-1.993571;1.579408
3.930;-2.006679;1.575307
3.940;-2.020051;1.571514
3.950;-2.033842;1.567284
3.960;-2.047984;1.562106
3.970;-2.062165;1.555817
3.980;-2.075882;1.548571
3.990;-2.088562;1.540705
4.000;-2.099738;1.532563
4.010;-2.109182;1.524361
4.020;-2.116957;1.516134
4.030;-2.123347;1.507759
4.040;-2.128722;1.499076
4.050;-2.133410;1.490053
4.060;-2.137606;1.480916
4.070;-2.141335;1.472170
4.080;-2.144445;1.464460
4.090;-2.146666;1.458358
4.100;-2.147726;1.454199
4.110;-2.147493;1.452053
4.120;-2.146070;1.451813
4.130;-2.143806;1.453300
4.140;-2.141209;1.456328
4.150;-2.138839;1.460680
4.160;-2.137189;1.466008
4.170;-2.136607;1.471744
4.180;-2.137269;1.477108
4.190;-2.139167;1.481262
4.200;-2.142130;1.483552
4.210;-2.145830;1.483708
4.220;-2.149812;1.481944
4.230;-2.153543;1.478928
4.240;-2.156475;1.475671
4.250;-2.158116;1.473338
4.260;-2.158069;1.472988
4.270;-2.156068;1.475302
4.280;-2.152014;1.480376
4.290;-2.146029;1.487686
4.300;-2.138483;1.496253
4.310;-2.129976;1.504964
4.320;-2.121243;1.512934
4.330;-2.113003;1.519768
4.340;-2.105808;1.525598
4.350;-2.099962;1.530922
4.360;-2.095517;1.536322
4.370;-2.092324;1.542210
4.380;-2.090104;1.548687
4.390;-2.088502;1.555529
4.400;-2.087127;1.562299
4.410;-2.085602;1.568539
4.420;-2.083591;1.573978
4.430;-2.080810;1.578679
4.440;-2.076990;1.583055
4.450;-2.071830;1.587725
4.460;-2.065010;1.593270
4.470;-2.056270;1.600007
4.480;-2.045567;1.607935
4.490;-2.033207;1.616855
4.500;-2.019879;1.626570
4.510;-2.006555;1.637014
4.520;-1.994267;1.648235
4.530;-1.983849;1.660263
4.540;-1.975706;1.672963
4.550;-1.969718;1.685962
4.560;-1.965306;1.698684
4.570;-1.961644;1.710457
4.580;-1.957904;1.720653
4.590;-1.953457;1.728811
4.600;-1.947976;1.734684
4.610;-1.941476;1.738232
4.620;-1.934288;1.739574
4.630;-1.926978;1.738963
4.640;-1.920220;1.736779
4.650;-1.914654;1.733506
4.660;-1.910769;1.729683
4.670;-1.908819;1.725818
4.680;-1.908786;1.722302
4.690;-1.910380;1.719331
4.700;-1.913102;1.716876
4.710;-1.916364;1.714726
4.720;-1.919634;1.712606
4.730;-1.922572;1.710316
4.740;-1.925089;1.707832
4.750;-1.927316;1.705319
4.760;-1.929485;1.703028
4.770;-1.931772;1.701155
4.780;-1.934165;1.699745
4.790;-1.936420;1.698682
4.800;-1.938099;1.697760
4.810;-1.938701;1.696775
4.820;-1.937841;1.695604
4.830;-1.935422;1.694232
4.840;-1.931737;1.692713
4.850;-1.927446;1.691083
4.860;-1.923435;1.689289
4.870;-1.920594;1.687173
4.880;-1.919607;1.684543
4.890;-1.920821;1.681302
4.900;-1.924237;1.677571
4.910;-1.929579;1.673709
4.920;-1.936396;1.670216
4.930;-1.944125;1.667536
4.940;-1.952141;1.665878
4.950;-1.959803;1.665143
4.960;-1.966522;1.664984
4.970;-1.971840;1.664966
4.980;-1.975506;1.664745
4.990;-1.977527;1.664221
5.000;-1.978181;1.663589
5.010;-1.978006;1.663245
5.020;-1.977727;1.663563
5.030;-1.978141;1.664655
5.040;-1.979963;1.666277
5.050;-1.983681;1.667919
5.060;-1.989448;1.669026
5.070;-1.997066;1.669242
5.080;-2.006070;1.668539
5.090;-2.015903;1.667213
5.100;-2.026130;1.665733
5.110;-2.036596;1.664523
5.120;-2.047484;1.663765
5.130;-2.059230;1.663328
5.140;-2.072360;1.662855
5.150;-2.087289;1.661953
5.160;-2.104173;1.660391
5.170;-2.122869;1.658203
5.180;-2.143020;1.655681
5.190;-2.164199;1.653275
5.200;-2.186047;1.651434
5.210;-2.208333;1.650443
5.220;-2.230929;1.650304
5.230;-2.253762;1.650721
5.240;-2.276789;1.651209
5.250;-2.300024;1.651287
5.260;-2.323603;1.650646
5.270;-2.347826;1.649228
5.280;-2.373121;1.647183
5.290;-2.399905;1.644754
5.300;-2.428381;1.642160
5.310;-2.458350;1.639521
5.320;-2.489109;1.636849
5.330;-2.519471;1.634104
5.340;-2.547902;1.631289
5.350;-2.572774;1.628545
5.360;-2.592694;1.626183
5.370;-2.606833;1.624656
5.380;-2.615163;1.624461
5.390;-2.618486;1.626000
5.400;-2.618270;1.629446
5.410;-2.616321;1.634689
5.420;-2.614409;1.641363
5.430;-2.613940;1.648970
5.440;-2.615731;1.657039
5.450;-2.619922;1.665285
5.460;-2.626003;1.673691
5.470;-2.632921;1.682475
5.480;-2.639248;1.691925
5.490;-2.643389;1.702202
5.500;-2.643831;1.713204
5.510;-2.639406;1.724567
5.520;-2.629542;1.735789
5.530;-2.614436;1.746382
5.540;-2.595073;1.755995
5.550;-2.573047;1.764453
5.560;-2.550196;1.771724
5.570;-2.528185;1.777845
5.580;-2.508197;1.782864
5.590;-2.490838;1.786820
5.600;-2.476246;1.789755
5.610;-2.464321;1.791722
5.620;-2.454945;1.792783
5.630;-2.448054;1.793016
5.640;-2.443546;1.792549
5.650;-2.441068;1.791613
5.660;-2.439822;1.790555
5.670;-2.438520;1.789760
5.680;-2.435538;1.789531
5.690;-2.429251;1.789949
5.700;-2.418447;1.790810
5.710;-2.402664;1.791631
5.720;-2.382355;1.791749
5.730;-2.358768;1.790528
5.740;-2.333631;1.787607
5.750;-2.308728;1.783090
5.760;-2.285541;1.777525
5.770;-2.265041;1.771668
5.780;-2.247666;1.766151
5.790;-2.233420;1.761256
5.800;-2.222046;1.756858
5.810;-2.213187;1.752539
5.820;-2.206502;1.747757
5.830;-2.201686;1.741993
5.840;-2.198444;1.734863
5.850;-2.196431;1.726196
5.860;-2.195208;1.716130
5.870;-2.194247;1.705172
5.880;-2.192944;1.694184
5.890;-2.190660;1.684209
5.900;-2.186757;1.676189
5.910;-2.180679;1.670656
5.920;-2.172044;1.667553
5.930;-2.160744;1.666273
5.940;-2.147010;1.665914
5.950;-2.131420;1.665630
5.960;-2.114856;1.664894
5.970;-2.098401;1.663611
5.980;-2.083180;1.662038
5.990;-2.070186;1.660611
6.000;-2.060119;1.659729
6.010;-2.053287;1.659608
6.020;-2.049587;1.660235
6.030;-2.048577;1.661452
6.040;-2.049602;1.663090
6.050;-2.051949;1.665062
6.060;-2.054999;1.667371
6.070;-2.058325;1.670041
6.080;-2.061731;1.673032
6.090;-2.065214;1.676206
6.100;-2.068872;1.679363
6.110;-2.072807;1.682328
6.120;-2.077061;1.685029
6.130;-2.081616;1.687522
6.140;-2.086429;1.689941
6.150;-2.091493;1.692404
6.160;-2.096899;1.694939
6.170;-2.102850;1.697470
6.180;-2.109592;1.699849
6.190;-2.117269;1.701897
6.200;-2.125787;1.703426
6.210;-2.134759;1.704233
6.220;-2.143587;1.704094
6.230;-2.151656;1.702775
6.240;-2.158538;1.700087
6.250;-2.164105;1.695969
6.260;-2.168512;1.690575
6.270;-2.172062;1.684266
6.280;-2.175047;1.677514
6.290;-2.177649;1.670758
6.300;-2.179938;1.664302
6.310;-2.181958;1.658304
6.320;-2.183824;1.652848
6.330;-2.185754;1.647999
6.340;-2.187989;1.643816
6.350;-2.190625;1.640341
6.360;-2.193435;1.637564
6.370;-2.195785;1.635407
6.380;-2.196712;1.633714
6.390;-2.195155;1.632270
6.400;-2.190265;1.630874
6.410;-2.181678;1.629419
6.420;-2.169645;1.627916
6.430;-2.154975;1.626451
6.440;-2.138831;1.625095
6.450;-2.122444;1.623862
6.460;-2.106840;1.622739
6.470;-2.092629;1.621756
6.480;-2.079919;1.621034
6.490;-2.068354;1.620773
6.500;-2.057274;1.621180
6.510;-2.045958;1.622390
6.520;-2.033860;1.624411
6.530;-2.020798;1.627105
6.540;-2.007016;1.630215
6.550;-1.993155;1.633401
6.560;-1.980109;1.636264
6.570;-1.968803;1.638385
6.580;-1.959919;1.639382
6.590;-1.953679;1.639006
6.600;-1.949754;1.637212
6.610;-1.947372;1.634179
6.620;-1.945571;1.630220
6.630;-1.943513;1.625647
6.640;-1.940712;1.620652
6.650;-1.937119;1.615286
6.660;-1.933044;1.609523
6.670;-1.928976;1.603350
6.680;-1.925379;1.596851
6.690;-1.922561;1.590209
6.700;-1.920642;1.583651
6.710;-1.919620;1.577316
6.720;-1.919473;1.571154
6.730;-1.920231;1.564905
6.740;-1.921997;1.558217
6.750;-1.924910;1.550851
6.760;-1.929091;1.542858
6.770;-1.934585;1.534643
6.780;-1.941346;1.526877
6.790;-1.949267;1.520307
6.800;-1.958245;1.515531
6.810;-1.968204;1.512838
6.820;-1.979046;1.512141
6.830;-1.990551;1.513012
6.840;-2.002255;1.514815
6.850;-2.013426;1.516855
6.860;-2.023149;1.518521
6.870;-2.030519;1.519385
6.880;-2.034876;1.519251
6.890;-2.035997;1.518154
6.900;-2.034156;1.516295
6.910;-2.030048;1.513944
6.920;-2.024582;1.511363
6.930;-2.018628;1.508796
6.940;-2.012806;1.506504
6.950;-2.007384;1.504795
6.960;-2.002311;1.503988
6.970;-1.997330;1.504315
6.980;-1.992124;1.505801
6.990;-1.986419;1.508193
7.000;-1.980030;1.510975
7.010;-1.972868;1.513479
7.020;-1.964923;1.515055
7.030;-1.956256;1.515261
7.040;-1.946961;1.514005
7.050;-1.937089;1.511589
7.060;-1.926552;1.508617
7.070;-1.915061;1.505800
7.080;-1.902202;1.503727
7.090;-1.887624;1.502724
7.100;-1.871253;1.502824
7.110;-1.853421;1.503819
7.120;-1.834807;1.505344
7.130;-1.816215;1.506947
7.140;-1.798254;1.508188
7.150;-1.781076;1.508731
7.160;-1.764299;1.508419
7.170;-1.747185;1.507266
7.180;-1.728993;1.505347
7.190;-1.709342;1.502659
7.200;-1.688408;1.499034
7.210;-1.666898;1.494180
7.220;-1.645812;1.487812
7.230;-1.626123;1.479828
7.240;-1.608507;1.470449
7.250;-1.593208;1.460281
7.260;-1.580092;1.450264
7.270;-1.568816;1.441536
7.280;-1.559044;1.435202
7.290;-1.550628;1.432063
7.300;-1.543687;1.432367
7.310;-1.538562;1.435690
7.320;-1.535665;1.441007
7.330;-1.535269;1.446967
7.340;-1.537343;1.452278
7.350;-1.541522;1.456056
7.360;-1.547217;1.458002
7.370;-1.553806;1.458361
7.380;-1.560789;1.457727
7.390;-1.567856;1.456797
7.400;-1.574876;1.456174
7.410;-1.581841;1.456254
7.420;-1.588836;1.457224
7.430;-1.596019;1.459118
7.440;-1.603622;1.461881
7.450;-1.611917;1.465426
7.460;-1.621120;1.469668
7.470;-1.631292;1.474570
7.480;-1.642277;1.480205
7.490;-1.653738;1.486773
7.500;-1.665290;1.494542
7.510;-1.676639;1.503723
7.520;-1.687686;1.514343
7.530;-1.698526;1.526186
7.540;-1.709364;1.538846
7.550;-1.720408;1.551863
7.560;-1.731798;1.564890
7.570;-1.743594;1.577808
7.580;-1.755815;1.590730
7.590;-1.768507;1.603879
7.600;-1.781799;1.617394
7.610;-1.795921;1.631143
7.620;-1.811137;1.644676
7.630;-1.827644;1.657319
7.640;-1.845473;1.668385
7.650;-1.864464;1.677396
7.660;-1.884285;1.684249
7.670;-1.904489;1.689241
7.680;-1.924542;1.692965
7.690;-1.943810;1.696101
7.700;-1.961550;1.699199
7.710;-1.976921;1.702562
7.720;-1.989046;1.706240
7.730;-1.997102;1.710116
7.740;-2.000433;1.714008
7.750;-1.998698;1.717757
7.760;-1.992039;1.721283
7.770;-1.981191;1.724581
7.780;-1.967481;1.727672
7.790;-1.952631;1.730518
7.800;-1.938413;1.732966
7.810;-1.926218;1.734763
7.820;-1.916683;1.735648
7.830;-1.909508;1.735484
7.840;-1.903544;1.734350
7.850;-1.897142;1.732537
7.860;-1.888677;1.730444
7.870;-1.877071;1.728418
7.880;-1.862146;1.726614
7.890;-1.844696;1.724967
7.900;-1.826255;1.723262
7.910;-1.808651;1.721292
7.920;-1.793498;1.719020
7.930;-1.781794;1.716694
7.940;-1.773746;1.714874
7.950;-1.768861;1.714311
7.960;-1.766238;1.715732
7.970;-1.764943;1.719575
7.980;-1.764336;1.725811
