Time[s];COPx[cm];COPy[cm]
0.010;0.284675;-3.848668
0.020;0.223945;-3.846653
0.030;0.166928;-3.841880
0.040;0.116245;-3.832238
0.050;0.073118;-3.816660
0.060;0.037122;-3.795168
0.070;0.006220;-3.768618
0.080;-0.022916;-3.738329
0.090;-0.054295;-3.705779
0.100;-0.091786;-3.672407
0.110;-0.138298;-3.639463
0.120;-0.195175;-3.607883
0.130;-0.261967;-3.578217
0.140;-0.336612;-3.550686
0.150;-0.415933;-3.525276
0.160;-0.496342;-3.501795
0.170;-0.574559;-3.479861
0.180;-0.648187;-3.458881
0.190;-0.715999;-3.438096
0.200;-0.777882;-3.416702
0.210;-0.834501;-3.394020
0.220;-0.886815;-3.369710
0.230;-0.935632;-3.343935
0.240;-0.981345;-3.317401
0.250;-1.023900;-3.291216
0.260;-1.062970;-3.266597
0.270;-1.098216;-3.244471
0.280;-1.129543;-3.225135
0.290;-1.157234;-3.208073
0.300;-1.181956;-3.192031
0.310;-1.204689;-3.175292
0.320;-1.226652;-3.156069
0.330;-1.249274;-3.132921
0.340;-1.274130;-3.105073
0.350;-1.302767;-3.072578
0.360;-1.336406;-3.036283
0.370;-1.375602;-2.997629
0.380;-1.420043;-2.958334
0.390;-1.468608;-2.919989
0.400;-1.519665;-2.883685
0.410;-1.571482;-2.849772
0.420;-1.622569;-2.817888
0.430;-1.671869;-2.787236
0.440;-1.718716;-2.756983
0.450;-1.762600;-2.726611
0.460;-1.802817;-2.696065
0.470;-1.838137;-2.665663
0.480;-1.866665;-2.635847
0.490;-1.885954;-2.606926
0.500;-1.893335;-2.578965
0.510;-1.886386;-2.551853
0.520;-1.863432;-2.525479
0.530;-1.824012;-2.499877
0.540;-1.769232;-2.475249
0.550;-1.701882;-2.451861
0.560;-1.626220;-2.429851
0.570;-1.547376;-2.409059
0.580;-1.470506;-2.388943
0.590;-1.399903;-2.368630
0.600;-1.338346;-2.347061
0.610;-1.286890;-2.323170
0.620;-1.245151;-2.296052
0.630;-1.211980;-2.265105
0.640;-1.186238;-2.230149
0.650;-1.167326;-2.191480
0.660;-1.155288;-2.149833
0.670;-1.150512;-2.106244
0.680;-1.153285;-2.061862
0.690;-1.163441;-2.017759
0.700;-1.180235;-1.974827
0.710;-1.202367;-1.933795
0.720;-1.228046;-1.895316
0.730;-1.255027;-1.860003
0.740;-1.280681;-1.828308
0.750;-1.302219;-1.800262
0.760;-1.317124;-1.775238
0.770;-1.323689;-1.751920
0.780;-1.321495;-1.728556
0.790;-1.311599;-1.703407
0.800;-1.296387;-1.675197
0.810;-1.279115;-1.643361
0.820;-1.263328;-1.608028
0.830;-1.252302;-1.569776
0.840;-1.248610;-1.529261
0.850;-1.253838;-1.486869
0.860;-1.268502;-1.442535
0.870;-1.292144;-1.395857
0.880;-1.323600;-1.346473
0.890;-1.361369;-1.294576
0.900;-1.404026;-1.241266
0.910;-1.450556;-1.188527
0.920;-1.500491;-1.138759
0.930;-1.553746;-1.094101
0.940;-1.610210;-1.055844
0.950;-1.669260;-1.024185
0.960;-1.729433;-0.998362
0.970;-1.788404;-0.977096
0.980;-1.843281;-0.959154
0.990;-1.891103;-0.943820
1.000;-1.929382;-0.931043
1.010;-1.956582;-0.921196
1.020;-1.972443;-0.914585
1.030;-1.978075;-0.910995
1.040;-1.975769;-0.909515
1.050;-1.968502;-0.908686
1.060;-1.959208;-0.906862
1.070;-1.950021;-0.902636
1.080;-1.941714;-0.895196
1.090;-1.933509;-0.884517
1.100;-1.923300;-0.871373
1.110;-1.908189;-0.857175
1.120;-1.885136;-0.843703
1.130;-1.851561;-0.832761
1.140;-1.805774;-0.825847
1.150;-1.747250;-0.823891
1.160;-1.676744;-0.827134
1.170;-1.596219;-0.835137
1.180;-1.508527;-0.846894
1.190;-1.416838;-0.861060
1.200;-1.323963;-0.876241
1.210;-1.231787;-0.891334
1.220;-1.141028;-0.905785
1.230;-1.051364;-0.919735
1.240;-0.961822;-0.933987
1.250;-0.871213;-0.949848
1.260;-0.778479;-0.968910
1.270;-0.682880;-0.992769
1.280;-0.584069;-1.022673
1.290;-0.482086;-1.059127
1.300;-0.377332;-1.101579
1.310;-0.270552;-1.148422
1.320;-0.162832;-1.197429
1.330;-0.055574;-1.246492
1.340;0.049602;-1.294337
1.350;0.151042;-1.340902
1.360;0.247325;-1.387247
1.370;0.337488;-1.435097
1.380;0.421164;-1.486237
1.390;0.498555;-1.541979
1.400;0.570268;-1.602816
1.410;0.637095;-1.668292
1.420;0.699815;-1.737092
1.430;0.759078;-1.807268
1.440;0.815397;-1.876555
1.450;0.869207;-1.942699
1.460;0.920926;-2.003754
1.470;0.970983;-2.058335
1.480;1.019777;-2.105793
1.490;1.067636;-2.146281
1.500;1.114773;-2.180663
1.510;1.161290;-2.210314
1.520;1.207169;-2.236892
1.530;1.252269;-2.262133
1.540;1.296282;-2.287700
1.550;1.338688;-2.315059
1.560;1.378744;-2.345379
1.570;1.415567;-2.379437
1.580;1.448303;-2.417500
1.590;1.476325;-2.459207
1.600;1.499361;-2.503474
1.610;1.517506;-2.548483
1.620;1.531135;-2.591812
1.630;1.540825;-2.630720
1.640;1.547303;-2.662600
1.650;1.551444;-2.685532
1.660;1.554250;-2.698775
1.670;1.556786;-2.703018
1.680;1.560020;-2.700225
1.690;1.564572;-2.693109
1.700;1.570430;-2.684438
1.710;1.576752;-2.676457
1.720;1.581873;-2.670633
1.730;1.583554;-2.667720
1.740;1.579429;-2.668041
1.750;1.567547;-2.671806
1.760;1.546908;-2.679314
1.770;1.517860;-2.690974
1.780;1.482217;-2.707147
1.790;1.442970;-2.727870
1.800;1.403643;-2.752563
1.810;1.367442;-2.779852
1.820;1.336483;-2.807640
1.830;1.311387;-2.833457
1.840;1.291368;-2.854969
1.850;1.274748;-2.870482
1.860;1.259632;-2.879272
1.870;1.244455;-2.881707
1.880;1.228206;-2.879160
1.890;1.210353;-2.873714
1.900;1.190570;-2.867697
1.910;1.168484;-2.863106
1.920;1.143596;-2.861055
1.930;1.115484;-2.861400
1.940;1.084202;-2.862712
1.950;1.050690;-2.862654
1.960;1.016916;-2.858651
1.970;0.985617;-2.848583
1.980;0.959673;-2.831246
1.990;0.941334;-2.806488
2.000;0.931576;-2.775093
2.010;0.929845;-2.738531
2.020;0.934255;-2.698673
2.030;0.942177;-2.657479
2.040;0.950961;-2.616694
2.050;0.958588;-2.577577
2.060;0.964056;-2.540761
2.070;0.967470;-2.506291
2.080;0.969823;-2.473878
2.090;0.972579;-2.443266
2.100;0.977161;-2.414543
2.110;0.984506;-2.388217
2.120;0.994834;-2.365059
2.130;1.007662;-2.345842
2.140;1.022023;-2.331107
2.150;1.036739;-2.320992
2.160;1.050612;-2.315053
2.170;1.062528;-2.312115
2.180;1.071552;-2.310269
2.190;1.077086;-2.307091
2.200;1.079061;-2.300119
2.210;1.078077;-2.287462
2.220;1.075398;-2.268409
2.230;1.072780;-2.243819
2.240;1.072174;-2.216087
2.250;1.075408;-2.188640
2.260;1.083943;-2.165055
2.270;1.098749;-2.148112
2.280;1.120279;-2.139100
2.290;1.148475;-2.137649
2.300;1.182819;-2.142123
2.310;1.222437;-2.150444
2.320;1.266251;-2.160925
2.330;1.313155;-2.172754
2.340;1.362132;-2.185912
2.350;1.412286;-2.200661
2.360;1.462809;-2.216927
2.370;1.512956;-2.233898
2.380;1.562091;-2.250032
2.390;1.609824;-2.263444
2.400;1.656153;-2.272538
2.410;1.701486;-2.276575
2.420;1.746495;-2.275963
2.430;1.791829;-2.272112
2.440;1.837823;-2.266987
2.450;1.884336;-2.262567
2.460;1.930765;-2.260434
2.470;1.976216;-2.261573
2.480;2.019772;-2.266340
2.490;2.060764;-2.274519
2.500;2.098962;-2.285389
2.510;2.134584;-2.297798
2.520;2.168150;-2.310305
2.530;2.200242;-2.321418
2.540;2.231284;-2.329937
2.550;2.261435;-2.335277
2.560;2.290561;-2.337635
2.570;2.318271;-2.337907
2.580;2.344001;-2.337417
2.590;2.367127;-2.337570
2.600;2.387104;-2.339559
2.610;2.403547;-2.344179
2.620;2.416223;-2.351737
2.630;2.424942;-2.362020
2.640;2.429396;-2.374320
2.650;2.429063;-2.387511
2.660;2.423274;-2.400197
2.670;2.411477;-2.410919
2.680;2.393631;-2.418381
2.690;2.370567;-2.421647
2.700;2.344109;-2.420253
2.710;2.316828;-2.414203
2.720;2.291431;-2.403833
2.730;2.270025;-2.389638
2.740;2.253552;-2.372149
2.750;2.241663;-2.351961
2.760;2.233032;-2.329827
2.770;2.225925;-2.306669
2.780;2.218705;-2.283417
2.790;2.210096;-2.260752
2.800;2.199169;-2.238923
2.810;2.185155;-2.217793
2.820;2.167269;-2.197105
2.830;2.144670;-2.176805
2.840;2.116666;-2.157215
2.850;2.083106;-2.138912
2.860;2.044801;-2.122415
2.870;2.003709;-2.107859
2.880;1.962727;-2.094889
2.890;1.925094;-2.082836
2.900;1.893631;-2.071052
2.910;1.870089;-2.059191
2.920;1.854846;-2.047308
2.930;1.846996;-2.035758
2.940;1.844751;-2.025028
2.950;1.845954;-2.015589
2.960;1.848552;-2.007759
2.970;1.850896;-2.001593
2.980;1.851900;-1.996785
2.990;1.851069;-1.992651
3.000;1.848455;-1.988233
3.010;1.844549;-1.982530
3.020;1.840139;-1.974795
3.030;1.836150;-1.964786
3.040;1.833468;-1.952881
3.050;1.832729;-1.939993
3.060;1.834046;-1.927362
3.070;1.836722;-1.916356
3.080;1.839047;-1.908325
3.090;1.838349;-1.904467
3.100;1.831338;-1.905586
3.110;1.814651;-1.911785
3.120;1.785384;-1.922229
3.130;1.741437;-1.935192
3.140;1.681564;-1.948487
3.150;1.605217;-1.960173
3.160;1.512291;-1.969266
3.170;1.402965;-1.976140
3.180;1.277733;-1.982430
3.190;1.137626;-1.990458
3.200;0.984473;-2.002384
3.210;0.821004;-2.019418
3.220;0.650655;-2.041407
3.230;0.477089;-2.066940
3.240;0.303648;-2.093930
3.250;0.132932;-2.120398
3.260;-0.033368;-2.145118
3.270;-0.194444;-2.167881
3.280;-0.350203;-2.189298
3.290;-0.501033;-2.210282
3.300;-0.647489;-2.231454
3.310;-0.789969;-2.252710
3.320;-0.928448;-2.273144
3.330;-1.062376;-2.291365
3.340;-1.190796;-2.306056
3.350;-1.312644;-2.316543
3.360;-1.427168;-2.323101
3.370;-1.534294;-2.326822
3.380;-1.634752;-2.329120
3.390;-1.729855;-2.331081
3.400;-1.820997;-2.332989
3.410;-1.909093;-2.334237
3.420;-1.994226;-2.333636
3.430;-2.075601;-2.329947
3.440;-2.151776;-2.322332
3.450;-2.220994;-2.310532
3.460;-2.281501;-2.294757
3.470;-2.331785;-2.275436
3.480;-2.370780;-2.253014
3.490;-2.398029;-2.227908
3.500;-2.413818;-2.200558
3.510;-2.419210;-2.171418
3.520;-2.415911;-2.140793
3.530;-2.405918;-2.108559
3.540;-2.391003;-2.073954
3.550;-2.372226;-2.035636
3.560;-2.349701;-1.992039
3.570;-2.322743;-1.941899
3.580;-2.290392;-1.884693
3.590;-2.252113;-1.820804
3.600;-2.208434;-1.751414
3.610;-2.161222;-1.678233
3.620;-2.113434;-1.603211
3.630;-2.068399;-1.528344
3.640;-2.028921;-1.455564
3.650;-1.996583;-1.386668
3.660;-1.971542;-1.323188
3.670;-1.952840;-1.266188
3.680;-1.939008;-1.216036
3.690;-1.928621;-1.172233
3.700;-1.920517;-1.133348
3.710;-1.913640;-1.097118
3.720;-1.906702;-1.060735
3.730;-1.897908;-1.021300
3.740;-1.884911;-0.976332
3.750;-1.865045;-0.924200
3.760;-1.835831;-0.864370
3.770;-1.795638;-0.797475
3.780;-1.744285;-0.725219
3.790;-1.683302;-0.650149
3.800;-1.615702;-0.575293
3.810;-1.545274;-0.503689
3.820;-1.475661;-0.437866
3.830;-1.409498;-0.379419
3.840;-1.347873;-0.328808
3.850;-1.290256;-0.285426
3.860;-1.234852;-0.247830
3.870;-1.179248;-0.214036
3.880;-1.121109;-0.181796
3.890;-1.058744;-0.148887
3.900;-0.991415;-0.113442
3.910;-0.919384;-0.074288
3.920;-0.843700;-0.031242
3.930;-0.765808;0.014695
3.940;-0.687076;0.061329
3.950;-0.608401;0.105521
3.960;-0.530059;0.143726
3.970;-0.451850;0.172709
3.980;-0.373493;0.190230
3.990;-0.295138;0.195458
4.000;-0.217789;0.189006
4.010;-0.143476;0.172653
4.020;-0.075075;0.148886
4.030;-0.015777;0.120432
4.040;0.031676;0.089900
4.050;0.065777;0.059566
4.060;0.086753;0.031322
4.070;0.096580;0.006687
4.080;0.098472;-0.013195
4.090;0.095998;-0.027639
4.100;0.092144;-0.036571
4.110;0.088627;-0.040668
4.120;0.085685;-0.041372
4.130;0.082370;-0.040707
4.140;0.077183;-0.040924
4.150;0.068812;-0.044055
4.160;0.056723;-0.051506
4.170;0.041433;-0.063815
4.180;0.024366;-0.080613
4.190;0.007346;-0.100753
4.200;-0.008088;-0.122529
4.210;-0.021304;-0.143933
4.220;-0.032879;-0.162952
4.230;-0.044454;-0.177848
4.240;-0.058158;-0.187368
4.250;-0.075814;-0.190849
4.260;-0.098218;-0.188244
4.270;-0.124777;-0.180109
4.280;-0.153663;-0.167530
4.290;-0.182436;-0.151973
4.300;-0.208869;-0.135053
4.310;-0.231629;-0.118254
4.320;-0.250531;-0.102673
4.330;-0.266348;-0.088864
4.340;-0.280385;-0.076849
4.350;-0.294100;-0.066280
4.360;-0.308904;-0.056655
4.370;-0.326119;-0.047498
4.380;-0.346932;-0.038441
4.390;-0.372238;-0.029250
4.400;-0.402345;-0.019826
4.410;-0.436677;-0.010234
4.420;-0.473585;-0.000778
4.430;-0.510389;0.007911
4.440;-0.543655;0.014842
4.450;-0.569712;0.018786
4.460;-0.585300;0.018569
4.470;-0.588197;0.013499
4.480;-0.577634;0.003729
4.490;-0.554409;-0.009642
4.500;-0.520672;-0.024863
4.510;-0.479466;-0.040089
4.520;-0.434166;-0.053961
4.530;-0.387936;-0.065925
4.540;-0.343333;-0.076232
4.550;-0.302082;-0.085700
4.560;-0.265021;-0.095404
4.570;-0.232115;-0.106416
4.580;-0.202486;-0.119669
4.590;-0.174486;-0.135955
4.600;-0.145936;-0.156027
4.610;-0.114572;-0.180729
4.620;-0.078636;-0.211051
4.630;-0.037376;-0.248046
4.640;0.008754;-0.292614
4.650;0.058279;-0.345221
4.660;0.109144;-0.405698
4.670;0.159202;-0.473197
4.680;0.206573;-0.546352
4.690;0.249829;-0.623571
4.700;0.288069;-0.703360
4.710;0.320952;-0.784569
4.720;0.348739;-0.866489
4.730;0.372326;-0.948802
4.740;0.393199;-1.031419
4.750;0.413263;-1.114299
4.760;0.434521;-1.197351
4.770;0.458699;-1.280455
4.780;0.486925;-1.363581
4.790;0.519597;-1.446887
4.800;0.556483;-1.530707
4.810;0.597005;-1.615391
4.820;0.640509;-1.701081
4.830;0.686392;-1.787551
4.840;0.734040;-1.874182
4.850;0.782657;-1.960083
4.860;0.831152;-2.044341
4.870;0.878209;-2.126313
4.880;0.922587;-2.205887
4.890;0.963535;-2.283596
4.900;1.001115;-2.360537
4.910;1.036252;-2.438069
4.920;1.070460;-2.517372
4.930;1.105408;-2.598985
4.940;1.142549;-2.682536
4.950;1.182943;-2.766778
4.960;1.227266;-2.849933
4.970;1.275891;-2.930218
4.980;1.328969;-3.006332
4.990;1.386459;-3.077773
5.000;1.448105;-3.144880
5.010;1.513400;-3.208588
5.020;1.581583;-3.269965
5.030;1.651712;-3.329735
5.040;1.722805;-3.387982
5.050;1.794001;-3.444185
5.060;1.864637;-3.497568
5.070;1.934257;-3.547591
5.080;2.002564;-3.594367
5.090;2.069382;-3.638805
5.100;2.134627;-3.682406
5.110;2.198284;-3.726815
5.120;2.260353;-3.773311
5.130;2.320754;-3.822404
5.140;2.379213;-3.873674
5.150;2.435181;-3.925886
5.160;2.487835;-3.977301
5.170;2.536163;-4.026108
5.180;2.579099;-4.070804
5.190;2.615697;-4.110425
5.200;2.645313;-4.144540
5.210;2.667750;-4.173060
5.220;2.683316;-4.195974
5.230;2.692722;-4.213174
5.240;2.696841;-4.224438
5.250;2.696412;-4.229560
5.260;2.691810;-4.228492
5.270;2.682987;-4.221417
5.280;2.669567;-4.208692
5.290;2.651062;-4.190694
5.300;2.627081;-4.167657
5.310;2.597461;-4.139572
5.320;2.562253;-4.106157
5.330;2.521568;-4.066882
5.340;2.475352;-4.021026
5.350;2.423120;-3.967793
5.360;2.363719;-3.906495
5.370;2.295175;-3.836793
5.380;2.214766;-3.758948
5.390;2.119437;-3.674059
5.400;2.006617;-3.584217
5.410;1.875300;-3.492446
5.420;1.727045;-3.402311
5.430;1.566362;-3.317188
5.440;1.400131;-3.239405
5.450;1.236055;-3.169612
5.460;1.080732;-3.106661
5.470;0.938157;-3.048077
5.480;0.809313;-2.990910
5.490;0.692933;-2.932635
5.500;0.586905;-2.871788
5.510;0.489582;-2.808231
5.520;0.400423;-2.743025
5.530;0.319868;-2.678017
5.540;0.248701;-2.615243
5.550;0.187333;-2.556309
5.560;0.135305;-2.501914
5.570;0.091141;-2.451686
5.580;0.052517;-2.404345
5.590;0.016686;-2.358096
5.600;-0.018952;-2.311089
5.610;-0.056284;-2.261771
5.620;-0.096125;-2.209011
5.630;-0.138257;-2.152038
5.640;-0.181906;-2.090294
5.650;-0.226505;-2.023346
5.660;-0.272403;-1.950905
5.670;-0.321180;-1.872961
5.680;-0.375381;-1.789999
5.690;-0.437740;-1.703246
5.700;-0.510210;-1.614834
5.710;-0.593141;-1.527718
5.720;-0.684881;-1.445276
5.730;-0.781870;-1.370677
5.740;-0.879195;-1.306247
5.750;-0.971439;-1.253064
5.760;-1.053622;-1.210946
5.770;-1.122007;-1.178786
5.780;-1.174594;-1.155054
5.790;-1.211251;-1.138215
5.800;-1.233517;-1.126904
5.810;-1.244165;-1.119881
5.820;-1.246680;-1.115921
5.830;-1.244712;-1.113774
5.840;-1.241602;-1.112283
5.850;-1.239996;-1.110593
5.860;-1.241591;-1.108386
5.870;-1.247072;-1.106063
5.880;-1.256209;-1.104796
5.890;-1.268072;-1.106387
5.900;-1.281279;-1.112862
5.910;-1.294207;-1.125867
5.920;-1.305157;-1.146064
5.930;-1.312511;-1.172840
5.940;-1.314869;-1.204517
5.950;-1.311129;-1.238971
5.960;-1.300463;-1.274335
5.970;-1.282266;-1.309428
5.980;-1.256188;-1.343768
5.990;-1.222294;-1.377227
6.000;-1.181253;-1.409559
6.010;-1.134405;-1.440031
6.020;-1.083612;-1.467335
6.030;-1.030937;-1.489850
6.040;-0.978260;-1.506182
6.050;-0.926974;-1.515808
6.060;-0.877868;-1.519540
6.070;-0.831216;-1.519541
6.080;-0.787010;-1.518829
6.090;-0.745257;-1.520470
6.100;-0.706258;-1.526811
6.110;-0.670838;-1.539081
6.120;-0.640407;-1.557450
6.130;-0.616810;-1.581402
6.140;-0.601985;-1.610165
6.150;-0.597602;-1.642946
6.160;-0.604833;-1.678893
6.170;-0.624268;-1.716887
6.180;-0.655905;-1.755445
6.190;-0.699067;-1.792946
6.200;-0.752254;-1.828142
6.210;-0.813009;-1.860695
6.220;-0.877922;-1.891408
6.230;-0.942893;-1.921968
6.240;-1.003629;-1.954276
6.250;-1.056286;-1.989669
6.260;-1.098090;-2.028387
6.270;-1.127737;-2.069505
6.280;-1.145438;-2.111306
6.290;-1.152600;-2.151938
6.300;-1.151251;-2.190102
6.310;-1.143418;-2.225538
6.320;-1.130633;-2.259089
6.330;-1.113692;-2.292309
6.340;-1.092701;-2.326786
6.350;-1.067386;-2.363496
6.360;-1.037544;-2.402505
6.370;-1.003460;-2.443087
6.380;-0.966077;-2.484090
6.390;-0.926857;-2.524286
6.400;-0.887362;-2.562533
6.410;-0.848769;-2.597741
6.420;-0.811490;-2.628751
6.430;-0.775073;-2.654321
6.440;-0.738388;-2.673346
6.450;-0.700084;-2.685258
6.460;-0.659146;-2.690406
6.470;-0.615349;-2.690162
6.480;-0.569403;-2.686659
6.490;-0.522724;-2.682268
6.500;-0.476939;-2.679037
6.510;-0.433391;-2.678274
6.520;-0.392847;-2.680363
6.530;-0.355508;-2.684828
6.540;-0.321243;-2.690568
6.550;-0.289889;-2.696177
6.560;-0.261451;-2.700234
6.570;-0.236107;-2.701503
6.580;-0.214029;-2.699063
6.590;-0.195136;-2.692384
6.600;-0.178891;-2.681371
6.610;-0.164248;-2.666408
6.620;-0.149778;-2.648356
6.630;-0.133957;-2.628507
6.640;-0.115524;-2.608477
6.650;-0.093791;-2.590046
6.660;-0.068797;-2.574989
6.670;-0.041277;-2.564936
6.680;-0.012477;-2.561263
6.690;0.016120;-2.564999
6.700;0.043057;-2.576695
6.710;0.067102;-2.596263
6.720;0.087359;-2.622821
6.730;0.103353;-2.654650
6.740;0.115123;-2.689339
6.750;0.123334;-2.724131
6.760;0.129364;-2.756405
6.770;0.135295;-2.784147
6.780;0.143729;-2.806298
6.790;0.157379;-2.822847
6.800;0.178510;-2.834652
6.810;0.208387;-2.843064
6.820;0.246924;-2.849493
6.830;0.292682;-2.855099
6.840;0.343238;-2.860719
6.850;0.395800;-2.866988
6.860;0.447840;-2.874506
6.870;0.497553;-2.883890
6.880;0.544051;-2.895660
6.890;0.587319;-2.910017
6.900;0.628007;-2.926647
6.910;0.667123;-2.944683
6.920;0.705696;-2.962842
6.930;0.744472;-2.979698
6.940;0.783731;-2.993973
6.950;0.823272;-3.004741
6.960;0.862524;-3.011515
6.970;0.900710;-3.014215
6.980;0.936936;-3.013047
6.990;0.970188;-3.008354
7.000;0.999302;-3.000487
7.010;1.023049;-2.989764
7.020;1.040401;-2.976530
7.030;1.050987;-2.961289
7.040;1.055512;-2.944830
7.050;1.055907;-2.928241
7.060;1.055018;-2.912689
7.070;1.055894;-2.899040
7.080;1.060971;-2.887492
7.090;1.071481;-2.877445
7.100;1.087289;-2.867665
7.110;1.107124;-2.856611
7.120;1.129029;-2.842794
7.130;1.150815;-2.825050
7.140;1.170387;-2.802687
7.150;1.185918;-2.775549
7.160;1.195949;-2.744034
7.170;1.199461;-2.709086
7.180;1.195938;-2.672112
7.190;1.185321;-2.634789
7.200;1.167837;-2.598739
7.210;1.143724;-2.565116
7.220;1.112985;-2.534181
7.230;1.075273;-2.505041
7.240;1.029967;-2.475651
7.250;0.976407;-2.443160
7.260;0.914199;-2.404528
7.270;0.843443;-2.357274
7.280;0.764773;-2.300140
7.290;0.679249;-2.233476
7.300;0.588204;-2.159202
7.310;0.493162;-2.080408
7.320;0.395843;-2.000728
7.330;0.298185;-1.923702
7.340;0.202317;-1.852250
7.350;0.110431;-1.788328
7.360;0.024598;-1.732755
7.370;-0.053456;-1.685224
7.380;-0.122549;-1.644426
7.390;-0.182194;-1.608273
7.400;-0.232661;-1.574197
7.410;-0.274903;-1.539537
7.420;-0.310342;-1.501927
7.430;-0.340596;-1.459631
7.440;-0.367238;-1.411740
7.450;-0.391697;-1.358222
7.460;-0.415293;-1.299862
7.470;-0.439345;-1.238143
7.480;-0.465237;-1.175090
7.490;-0.494336;-1.113069
7.500;-0.527763;-1.054495
7.510;-0.566103;-1.001430
7.520;-0.609185;-0.955146
7.530;-0.656066;-0.915849
7.540;-0.705235;-0.882745
7.550;-0.754932;-0.854442
7.560;-0.803472;-0.829506
7.570;-0.849488;-0.806871
7.580;-0.892096;-0.785951
7.590;-0.931019;-0.766464
7.600;-0.966669;-0.748151
7.610;-1.000159;-0.730521
7.620;-1.033209;-0.712705
7.630;-1.067960;-0.693520
7.640;-1.106678;-0.671734
7.650;-1.151348;-0.646507
7.660;-1.203207;-0.617821
7.670;-1.262330;-0.586707
7.680;-1.327464;-0.555178
7.690;-1.396243;-0.525829
7.700;-1.465779;-0.501247
7.710;-1.533414;-0.483414
7.720;-1.597324;-0.473305
7.730;-1.656796;-0.470776
7.740;-1.712140;-0.474706
7.750;-1.764395;-0.483307
7.760;-1.814955;-0.494504
7.770;-1.865197;-0.506313
7.780;-1.916132;-0.517116
7.790;-1.968108;-0.525794
7.800;-2.020631;-0.531727
7.810;-2.072347;-0.534706
7.820;-2.121183;-0.534819
7.830;-2.164650;-0.532331
